PLAYER_ID,SEASON_ID,LEAGUE_ID,TEAM_ID,TEAM_ABBREVIATION,PLAYER_AGE,GP,GS,MIN,FGM,FGA,FG_PCT,FG3M,FG3A,FG3_PCT,FTM,FTA,FT_PCT,OREB,DREB,REB,AST,STL,BLK,TOV,PF,PTS
76707,1975-76,00,1610612739,CLE,22.0,4,,9,0,2,0.0,,,,0,0,0.0,0,1,1,0,0,0,,1,0
76707,1975-76,00,1610612741,CHI,22.0,33,,259,33,84,0.393,,,,26,37,0.703,25,44,69,19,7,14,,20,92
76707,1975-76,00,0,TOT,22.0,37,,268,33,86,0.384,,,,26,37,0.703,25,45,70,19,7,14,,21,92
76707,1976-77,00,1610612741,CHI,23.0,5,,61,3,15,0.2,,,,8,11,0.727,9,7,16,6,1,3,,9,14
76707,1979-80,00,1610612738,BOS,26.0,56,0.0,431,71,153,0.464,0.0,0.0,,33,52,0.635,40,56,96,28,17,12,20.0,43,175
76707,1980-81,00,1610612738,BOS,27.0,45,0.0,279,38,79,0.481,0.0,0.0,,20,30,0.667,29,33,62,10,6,7,20.0,29,96
76707,1981-82,00,1610612738,BOS,28.0,43,0.0,202,19,49,0.388,0.0,0.0,,19,30,0.633,12,30,42,8,5,7,13.0,23,57
76707,1983-84,00,1610612752,NYK,30.0,32,0.0,402,29,52,0.558,0.0,0.0,0.0,25,34,0.735,29,57,86,11,16,8,19.0,49,83
77314,1975-76,00,1610612764,WAS,23.0,25,,72,7,30,0.233,,,,5,6,0.833,5,10,15,8,2,0,,20,19
77314,1976-77,00,1610612741,CHI,24.0,53,,480,73,152,0.48,,,,28,41,0.683,21,26,47,39,18,1,,77,174
77341,1975-76,00,1610612741,CHI,23.0,71,,1570,284,690,0.412,,,,87,120,0.725,52,167,219,55,56,10,,90,655
77341,1976-77,00,1610612741,CHI,24.0,47,,562,75,212,0.354,,,,27,30,0.9,16,47,63,44,32,2,,22,177
77463,1966-67,00,1610612764,BLT,22.0,74,,1323,283,632,0.448,,,,145,187,0.775,,,313,75,,,,199,711
77463,1967-68,00,1610612764,BLT,23.0,82,,2037,429,932,0.46,,,,250,314,0.796,,,473,110,,,,246,1108
77463,1968-69,00,1610612764,BLT,24.0,82,,2710,505,1109,0.455,,,,292,352,0.83,,,608,231,,,,275,1302
77463,1969-70,00,1610612764,BLT,25.0,82,,2947,666,1363,0.489,,,,286,339,0.844,,,537,217,,,,248,1618
77463,1970-71,00,1610612764,BLT,26.0,82,,2920,626,1360,0.46,,,,290,342,0.848,,,513,217,,,,261,1542
77463,1971-72,00,1610612764,BLT,27.0,78,,2927,690,1444,0.478,,,,356,398,0.894,,,528,169,,,,240,1736
77463,1972-73,00,1610612745,HOU,28.0,81,,3019,624,1334,0.468,,,,248,292,0.849,,,499,291,,,,247,1496
77463,1973-74,00,1610612746,BUF,29.0,27,,680,145,266,0.545,,,,71,81,0.877,30.0,92.0,122,46,23.0,18.0,,93,361
77463,1973-74,00,1610612745,HOU,29.0,47,,1102,210,443,0.474,,,,82,98,0.837,29.0,77.0,106,121,23.0,8.0,,120,502
77463,1973-74,00,0,TOT,29.0,74,,1782,355,709,0.501,,,,153,179,0.855,59.0,169.0,228,167,46.0,26.0,,213,863
77463,1974-75,00,1610612746,BUF,30.0,81,,2147,380,836,0.455,,,,193,222,0.869,104.0,259.0,363,133,51.0,16.0,,238,953
77463,1975-76,00,1610612746,BUF,31.0,12,,278,41,94,0.436,,,,27,33,0.818,10.0,30.0,40,23,7.0,6.0,,30,109
77463,1975-76,00,1610612741,CHI,31.0,67,,1631,302,718,0.421,,,,134,155,0.865,59.0,153.0,212,118,38.0,5.0,,134,738
77463,1975-76,00,0,TOT,31.0,79,,1909,343,812,0.422,,,,161,188,0.856,69.0,183.0,252,141,45.0,11.0,,164,847
77463,1976-77,00,1610612741,CHI,32.0,54,,869,167,359,0.465,,,,31,39,0.795,27.0,64.0,91,62,13.0,6.0,,85,365
77517,1972-73,00,1610612745,HOU,22.0,24,,305,44,89,0.494,,,,23,39,0.59,,,51,17,,,,32,111
77517,1973-74,00,1610612745,HOU,23.0,4,,13,1,4,0.25,,,,0,0,,1.0,5.0,6,2,0.0,0.0,,3,2
77517,1976-77,00,1610612741,CHI,26.0,9,,119,18,47,0.383,,,,11,18,0.611,6.0,10.0,16,14,6.0,0.0,,17,47
78208,1976-77,00,1610612741,CHI,23.0,2,,11,0,1,0.0,,,,0,0,,0,0,0,0,0,0,,1,0
78208,1977-78,00,1610612754,IND,24.0,1,,7,0,0,,,,,0,0,,0,0,0,1,0,0,0.0,1,0
78208,1978-79,00,1610612757,POR,25.0,13,,131,23,44,0.523,,,,12,17,0.706,7,6,13,17,10,1,14.0,19,58
78208,1979-80,00,1610612739,CLE,26.0,62,,1051,121,315,0.384,17.0,71.0,0.239,40,52,0.769,56,65,121,259,75,1,95.0,110,299
78243,1976-77,00,1610612741,CHI,23.0,17,,65,6,24,0.25,,,,2,2,1.0,6,4,10,6,1,0,,11,14
76055,1974-75,00,1610612738,BOS,26.0,59,,719,89,266,0.335,,,,48,65,0.738,59,140,199,40,13,32,,96,226
76055,1975-76,00,1610612738,BOS,27.0,81,,853,107,294,0.364,,,,71,100,0.71,96,193,289,48,12,36,,141,285
76055,1976-77,00,1610612738,BOS,28.0,63,,969,96,254,0.378,,,,49,76,0.645,77,219,296,53,18,28,,128,241
76055,1977-78,00,1610612738,BOS,29.0,1,,9,0,1,0.0,,,,1,2,0.5,1,3,4,1,0,0,0.0,1,1
76055,1977-78,00,1610612741,CHI,29.0,14,,116,8,16,0.5,,,,2,3,0.667,8,24,32,7,0,0,14.0,18,18
76055,1977-78,00,0,TOT,29.0,15,,125,8,17,0.471,,,,3,5,0.6,9,27,36,8,0,0,14.0,19,19
76192,1968-69,00,1610612741,CHI,23.0,80,,2365,318,831,0.383,,,,145,222,0.653,,,889,178,,,,317,781
76192,1969-70,00,1610612741,CHI,24.0,81,,2335,348,775,0.449,,,,150,226,0.664,,,1016,229,,,,255,846
76192,1970-71,00,1610612741,CHI,25.0,82,,2370,357,736,0.485,,,,168,232,0.724,,,1133,397,,,,275,882
76192,1971-72,00,1610612741,CHI,26.0,80,,2022,219,500,0.438,,,,118,180,0.656,,,897,281,,,,253,556
76192,1972-73,00,1610612741,CHI,27.0,8,,176,9,24,0.375,,,,12,20,0.6,,,54,40,,,,22,30
76192,1973-74,00,1610612741,CHI,28.0,46,,602,58,119,0.487,,,,42,60,0.7,53.0,160.0,213,94,16.0,18.0,,80,158
76192,1974-75,00,1610612741,CHI,29.0,80,,1175,132,271,0.487,,,,73,95,0.768,105.0,275.0,380,272,25.0,45.0,,163,337
76192,1975-76,00,1610612741,CHI,30.0,74,,2045,265,530,0.5,,,,118,177,0.667,263.0,529.0,792,283,47.0,52.0,,263,648
76192,1976-77,00,1610612741,CHI,31.0,82,,1070,134,273,0.491,,,,34,63,0.54,101.0,211.0,312,189,19.0,19.0,,147,302
76192,1977-78,00,1610612741,CHI,32.0,22,,227,23,50,0.46,,,,10,13,0.769,14.0,45.0,59,44,3.0,4.0,26.0,36,56
76564,1973-74,00,1610612744,GOS,23.0,66,,930,115,233,0.494,,,,51,66,0.773,123,216,339,54,17,15,,112,281
76564,1974-75,00,1610612744,GOS,24.0,80,,1859,274,569,0.482,,,,66,99,0.667,190,360,550,125,52,19,,199,614
76564,1975-76,00,1610612744,GOS,25.0,79,,1207,220,473,0.465,,,,62,79,0.785,114,235,349,83,26,11,,141,502
76564,1976-77,00,1610612744,GOS,26.0,49,,856,158,345,0.458,,,,45,61,0.738,100,140,240,63,20,11,,101,361
76564,1977-78,00,1610612744,GOS,27.0,22,,273,60,130,0.462,,,,16,17,0.941,21,28,49,11,10,2,17.0,29,136
76564,1977-78,00,1610612741,CHI,27.0,25,,220,27,68,0.397,,,,14,19,0.737,15,33,48,10,4,2,23.0,27,68
76564,1977-78,00,0,TOT,27.0,47,,493,87,198,0.439,,,,30,36,0.833,36,61,97,21,14,4,40.0,56,204
77869,1975-76,00,1610612741,CHI,21.0,75,,1326,156,380,0.411,,,,122,182,0.67,113,268,381,90,28,26,,134,434
77869,1976-77,00,1610612741,CHI,22.0,78,,996,107,257,0.416,,,,42,65,0.646,77,159,236,41,34,11,,82,256
77869,1977-78,00,1610612741,CHI,23.0,44,,534,37,85,0.435,,,,14,20,0.7,36,94,130,87,19,15,30.0,66,88
78045,1966-67,00,1610612752,NYK,23.0,77,,1696,344,789,0.436,,,,179,228,0.785,,,251,187,,,,174,867
78045,1967-68,00,1610612752,NYK,24.0,82,,2296,551,1192,0.462,,,,282,349,0.808,,,374,195,,,,223,1384
78045,1968-69,00,1610612752,NYK,25.0,50,,1645,362,804,0.45,,,,191,240,0.796,,,209,115,,,,140,915
78045,1969-70,00,1610612752,NYK,26.0,78,,1563,385,773,0.498,,,,124,160,0.775,,,236,135,,,,137,894
78045,1970-71,00,1610612752,NYK,27.0,57,,1056,216,504,0.429,,,,92,119,0.773,,,192,77,,,,74,524
78045,1971-72,00,1610612744,GOS,28.0,79,,2902,689,1514,0.455,,,,315,378,0.833,,,428,248,,,,176,1693
78045,1972-73,00,1610612744,GOS,29.0,80,,2429,541,1182,0.458,,,,172,199,0.864,,,350,187,,,,171,1254
78045,1973-74,00,1610612744,GOS,30.0,82,,2574,738,1531,0.482,,,,208,249,0.835,142.0,211.0,353,192,54.0,17.0,,194,1684
78045,1974-75,00,1610612747,LAL,31.0,40,,1055,264,580,0.455,,,,101,113,0.894,34.0,81.0,115,109,27.0,2.0,,56,629
78045,1975-76,00,1610612747,LAL,32.0,74,,1625,371,802,0.463,,,,132,148,0.892,50.0,133.0,183,122,53.0,3.0,,122,874
78045,1976-77,00,1610612747,LAL,33.0,82,,2583,578,1179,0.49,,,,188,219,0.858,86.0,208.0,294,210,86.0,7.0,,163,1344
78045,1977-78,00,1610612741,CHI,34.0,36,,789,133,304,0.438,,,,49,57,0.86,31.0,52.0,83,61,19.0,4.0,35.0,63,315
78135,1977-78,00,1610612741,CHI,24.0,64,,698,119,262,0.454,,,,37,56,0.661,67,64,131,43,14,3,46,72,275
78135,1978-79,00,1610612741,CHI,25.0,22,,203,24,51,0.471,,,,12,19,0.632,16,12,28,15,5,0,21,16,60
78135,1978-79,00,1610612765,DET,25.0,20,,76,12,25,0.48,,,,8,15,0.533,9,10,19,4,3,1,4,10,32
78135,1978-79,00,0,TOT,25.0,42,,279,36,76,0.474,,,,20,34,0.588,25,22,47,19,8,1,25,26,92
78406,1969-70,00,1610612758,CIN,23.0,81,,2895,302,749,0.403,,,,166,224,0.741,,,409,500,,,,329,770
78406,1970-71,00,1610612758,CIN,24.0,82,,3324,478,1138,0.42,,,,359,440,0.816,,,583,832,,,,343,1315
78406,1971-72,00,1610612741,CHI,25.0,69,,2140,306,671,0.456,,,,220,278,0.791,,,299,491,,,,207,832
78406,1971-72,00,1610612758,CIN,25.0,10,,275,28,90,0.311,,,,17,22,0.773,,,58,51,,,,32,73
78406,1971-72,00,0,TOT,25.0,79,,2415,334,761,0.439,,,,237,300,0.79,,,357,542,,,,239,905
78406,1972-73,00,1610612741,CHI,26.0,80,,2882,474,1064,0.445,,,,166,211,0.787,,,438,567,,,,269,1114
78406,1973-74,00,1610612741,CHI,27.0,80,,2863,427,1051,0.406,,,,288,370,0.778,114.0,263.0,377,548,162.0,7.0,,282,1142
78406,1974-75,00,1610612741,CHI,28.0,70,,2590,407,970,0.42,,,,236,298,0.792,86.0,242.0,328,403,139.0,14.0,,246,1050
78406,1975-76,00,1610612741,CHI,29.0,76,,3026,361,987,0.366,,,,235,319,0.737,138.0,272.0,410,500,150.0,26.0,,298,957
78406,1976-77,00,1610612741,CHI,30.0,82,,3097,300,729,0.412,,,,238,306,0.778,108.0,262.0,370,636,129.0,16.0,,268,838
78406,1977-78,00,1610612741,CHI,31.0,78,,2524,200,477,0.419,,,,172,229,0.751,86.0,198.0,284,531,144.0,5.0,200.0,279,572
78406,1978-79,00,1610612749,MIL,32.0,38,,555,30,77,0.39,,,,47,52,0.904,8.0,32.0,40,158,43.0,3.0,49.0,108,107
78475,1973-74,00,1610612764,CAP,23.0,65,,1216,199,483,0.412,,,,96,139,0.691,133,264,397,38,48,16,,179,494
78475,1974-75,00,1610612764,WAS,24.0,82,,1347,256,562,0.456,,,,103,138,0.746,132,214,346,51,65,21,,212,615
78475,1975-76,00,1610612764,WAS,25.0,64,,1083,218,458,0.476,,,,96,137,0.701,85,189,274,55,46,16,,172,532
78475,1976-77,00,1610612764,WAS,26.0,11,,152,27,76,0.355,,,,5,8,0.625,11,13,24,2,3,5,,19,59
78475,1976-77,00,1610612760,SEA,26.0,51,,1505,283,614,0.461,,,,86,136,0.632,109,295,404,51,49,23,,149,652
78475,1976-77,00,0,TOT,26.0,62,,1657,310,690,0.449,,,,91,144,0.632,120,308,428,53,52,28,,168,711
78475,1977-78,00,1610612741,CHI,27.0,41,,611,86,194,0.443,,,,37,42,0.881,57,68,125,32,19,10,49.0,74,209
78475,1978-79,00,1610612746,SDC,28.0,82,,2642,479,998,0.48,,,,176,238,0.739,179,275,454,135,80,37,184.0,287,1134
78475,1979-80,00,1610612746,SDC,29.0,57,,1124,164,378,0.434,0.0,0.0,,63,91,0.692,83,125,208,54,34,17,86.0,136,391
76059,1977-78,00,1610612741,CHI,22.0,66,,716,131,280,0.468,,,,22,27,0.815,24,44,68,74,23,0,58,42,284
76059,1978-79,00,1610612741,CHI,23.0,26,,259,28,70,0.4,,,,10,13,0.769,7,13,20,31,10,0,21,22,66
76276,1973-74,00,1610612737,ATL,22.0,77,,1715,277,632,0.438,,,,163,217,0.751,177,264,441,114,29,16,,239,717
76276,1974-75,00,1610612737,ATL,23.0,73,,1986,315,684,0.461,,,,185,250,0.74,180,254,434,133,54,15,,228,815
76276,1975-76,00,1610612737,ATL,24.0,75,,1758,215,486,0.442,,,,162,209,0.775,146,257,403,126,45,16,,235,592
76276,1976-77,00,1610612737,ATL,25.0,77,,1405,160,350,0.457,,,,121,150,0.807,75,161,236,103,46,7,,217,441
76276,1977-78,00,1610612737,ATL,26.0,75,,1594,192,405,0.474,,,,165,200,0.825,137,166,303,105,55,8,116.0,280,549
76276,1978-79,00,1610612741,CHI,27.0,77,,1265,152,317,0.479,,,,84,98,0.857,83,155,238,104,18,10,89.0,180,388
76276,1979-80,00,1610612737,ATL,28.0,28,,361,37,98,0.378,0.0,0.0,0.0,34,44,0.773,21,41,62,14,3,4,24.0,66,108
76276,1979-80,00,1610612762,UTH,28.0,4,,24,0,7,0.0,0.0,0.0,0.0,4,4,1.0,5,4,9,4,0,0,5.0,4,4
76276,1979-80,00,0,TOT,28.0,32,,385,37,105,0.352,0.0,0.0,,38,48,0.792,26,45,71,18,3,4,29.0,70,112
76607,1972-73,00,1610612760,SEA,23.0,12,,99,10,23,0.435,,,,14,16,0.875,,,6,16,,,,15,34
76607,1974-75,00,1610612744,GOS,25.0,67,,756,102,217,0.47,,,,70,97,0.722,61.0,84.0,145,103,40.0,2.0,,105,274
76607,1975-76,00,1610612744,GOS,26.0,82,,1456,182,345,0.528,,,,157,245,0.641,112.0,157.0,269,239,77.0,2.0,,170,521
76607,1976-77,00,1610612744,GOS,27.0,79,,1682,220,421,0.523,,,,129,203,0.635,119.0,177.0,296,347,67.0,6.0,,169,569
76607,1977-78,00,1610612744,GOS,28.0,78,,1660,127,249,0.51,,,,138,195,0.708,86.0,201.0,287,409,68.0,2.0,163.0,181,392
76607,1978-79,00,1610612741,CHI,29.0,43,,684,45,125,0.36,,,,28,42,0.667,25.0,61.0,86,116,32.0,1.0,64.0,82,118
77042,1975-76,00,1610612737,ATL,24.0,33,,351,85,213,0.399,,,,22,34,0.647,15,26,41,26,20,2,,48,192
77042,1976-77,00,1610612741,CHI,25.0,79,,2453,509,1120,0.454,,,,158,192,0.823,78,175,253,253,169,16,,201,1176
77042,1977-78,00,1610612741,CHI,26.0,82,,2884,569,1285,0.443,,,,223,279,0.799,105,189,294,313,164,14,223.0,258,1361
77042,1978-79,00,1610612741,CHI,27.0,82,,2483,445,940,0.473,,,,141,176,0.801,78,176,254,330,122,12,185.0,240,1031
77168,1974-75,00,1610612741,CHI,22.0,38,,291,53,118,0.449,,,,37,58,0.638,32,62,94,20,10,11,,57,143
77168,1975-76,00,1610612741,CHI,23.0,81,,2390,478,1033,0.463,,,,283,360,0.786,279,479,758,130,93,66,,292,1239
77168,1976-77,00,1610612741,CHI,24.0,81,,2847,538,1205,0.446,,,,324,407,0.796,297,531,828,195,103,64,,315,1400
77168,1977-78,00,1610612741,CHI,25.0,81,,2870,561,1215,0.462,,,,362,446,0.812,218,520,738,267,92,68,270.0,317,1484
77168,1978-79,00,1610612741,CHI,26.0,82,,2594,496,1105,0.449,,,,273,329,0.83,193,434,627,380,88,59,312.0,286,1265
77168,1979-80,00,1610612754,IND,27.0,82,,2647,588,1271,0.463,5.0,32.0,0.156,385,482,0.799,258,423,681,344,153,112,286.0,291,1566
77168,1980-81,00,1610612749,MIL,28.0,82,,2118,379,846,0.448,3.0,18.0,0.167,262,332,0.789,183,362,545,286,94,71,230.0,256,1023
77168,1981-82,00,1610612749,MIL,29.0,76,71.0,1934,372,757,0.491,1.0,7.0,0.143,233,291,0.801,133,321,454,215,72,45,191.0,240,978
77168,1982-83,00,1610612749,MIL,30.0,6,0.0,153,30,66,0.455,0.0,2.0,0.0,7,9,0.778,9,16,25,11,1,2,12.0,22,67
77168,1982-83,00,1610612751,NJN,30.0,42,7.0,1001,199,496,0.401,2.0,17.0,0.118,164,201,0.816,66,158,224,144,56,21,121.0,135,564
77168,1982-83,00,1610612744,GOS,30.0,30,9.0,899,162,359,0.451,1.0,17.0,0.059,141,170,0.829,88,157,245,100,25,23,105.0,131,466
77168,1982-83,00,0,TOT,30.0,78,16.0,2053,391,921,0.425,3.0,36.0,0.083,312,380,0.821,163,331,494,255,82,46,238.0,288,1097
77168,1983-84,00,1610612744,GOS,31.0,78,25.0,2122,359,852,0.421,5.0,29.0,0.172,339,432,0.785,198,320,518,219,101,30,216.0,290,1062
77168,1984-85,00,1610612744,GOS,32.0,66,9.0,1565,304,714,0.426,7.0,30.0,0.233,260,316,0.823,149,247,396,149,70,35,142.0,221,875
77168,1985-86,00,1610612751,NJN,33.0,79,4.0,1574,214,507,0.422,5.0,24.0,0.208,183,233,0.785,98,234,332,217,67,25,165.0,248,616
77396,1976-77,00,1610612749,MIL,24.0,69,,1025,153,324,0.472,,,,95,126,0.754,81,129,210,33,21,13,,158,401
77396,1977-78,00,1610612749,MIL,25.0,14,,112,12,33,0.364,,,,6,10,0.6,7,19,26,9,3,5,7.0,22,30
77396,1977-78,00,1610612746,BUF,25.0,56,,566,68,160,0.425,,,,43,58,0.741,45,74,119,35,11,9,36.0,83,179
77396,1977-78,00,0,TOT,25.0,70,,678,80,193,0.415,,,,49,68,0.721,52,93,145,44,14,14,43.0,105,209
77396,1978-79,00,1610612746,SDC,26.0,5,,31,0,2,0.0,,,,0,0,0.0,1,2,3,0,1,0,8.0,6,0
77396,1978-79,00,1610612741,CHI,26.0,67,,465,42,120,0.35,,,,27,47,0.574,48,45,93,32,9,8,43.0,86,111
77396,1978-79,00,0,TOT,26.0,72,,496,42,122,0.344,,,,27,47,0.574,49,47,96,32,10,8,51.0,92,111
77396,1980-81,00,1610612742,DAL,28.0,72,,2186,245,547,0.448,0.0,2.0,0.0,147,205,0.717,161,293,454,159,34,25,145.0,269,637
77396,1981-82,00,1610612742,DAL,29.0,74,17.0,1047,108,285,0.379,2.0,4.0,0.5,69,91,0.758,60,103,163,67,15,7,59.0,175,287
77396,1982-83,00,1610612742,DAL,30.0,15,0.0,206,19,50,0.38,0.0,1.0,0.0,11,17,0.647,19,27,46,21,6,6,6.0,24,49
76078,1970-71,00,1610612755,PHL,23.0,70,38,1292,200,421,0.475,,,,104,157,0.662,,,430,89,,,,211,504
76078,1971-72,00,1610612755,PHL,24.0,58,7,794,98,222,0.441,,,,49,76,0.645,,,248,51,,,,141,245
76078,1972-73,00,1610612755,PHL,25.0,3,2,37,3,7,0.429,,,,1,4,0.25,,,14,2,,,,8,7
76078,1972-73,00,1610612741,CHI,25.0,79,32,1650,143,298,0.48,,,,85,149,0.57,,,433,222,,,,226,371
76078,1972-73,00,0,TOT,25.0,82,34,1687,146,305,0.479,,,,86,153,0.562,,,447,224,,,,234,378
76078,1973-74,00,1610612741,CHI,26.0,68,1,756,65,123,0.528,,,,54,94,0.574,49.0,125.0,174,86,22.0,14.0,,128,184
76078,1974-75,00,1610612756,PHX,27.0,82,72,2837,339,722,0.47,,,,132,195,0.677,242.0,462.0,704,342,60.0,52.0,,227,810
76078,1975-76,00,1610612756,PHX,28.0,74,3,1376,142,304,0.467,,,,75,109,0.688,93.0,200.0,293,159,21.0,22.0,,153,359
76078,1976-77,00,1610612756,PHX,29.0,72,26,1760,160,373,0.429,,,,91,126,0.722,111.0,245.0,356,182,23.0,31.0,,170,411
76078,1977-78,00,1610612756,PHX,30.0,81,34,1623,112,264,0.424,,,,69,109,0.633,97.0,205.0,302,163,19.0,25.0,127.0,153,293
76078,1978-79,00,1610612738,BOS,31.0,23,4,247,17,44,0.386,,,,16,20,0.8,13.0,34.0,47,20,3.0,6.0,21.0,37,50
76078,1978-79,00,1610612760,SEA,31.0,40,0,499,27,63,0.429,,,,25,36,0.694,29.0,75.0,104,49,13.0,7.0,31.0,69,79
76078,1978-79,00,0,TOT,31.0,63,4,746,44,107,0.411,,,,41,56,0.732,42.0,109.0,151,69,16.0,13.0,52.0,106,129
76078,1979-80,00,1610612741,CHI,32.0,26,6,560,27,60,0.45,0.0,0.0,0.0,32,50,0.64,29.0,86.0,115,40,12.0,15.0,27.0,66,86
76078,1980-81,00,1610612760,SEA,33.0,47,0,607,44,93,0.473,0.0,0.0,0.0,14,20,0.7,33.0,75.0,108,54,12.0,8.0,33.0,85,102
76078,1981-82,00,1610612757,POR,34.0,10,3,121,5,15,0.333,0.0,0.0,0.0,5,9,0.556,7.0,7.0,14,8,1.0,2.0,6.0,28,15
76159,1978-79,00,1610612749,MIL,22.0,1,,1,0,0,,,,,0,0,,0,0,0,0,0,0,0,0,0
76159,1979-80,00,1610612741,CHI,23.0,68,,869,88,250,0.352,10.0,26.0,0.385,58,87,0.667,16,47,63,139,58,5,104,105,244
76286,1972-73,00,1610612747,LAL,23.0,1,,5,0,0,,,,,1,3,0.333,,,0,0,,,,1,1
76286,1975-76,00,1610612765,DET,26.0,29,,454,29,72,0.403,,,,14,18,0.778,47.0,83.0,130,12,6.0,25.0,,76,72
76286,1976-77,00,1610612765,DET,27.0,43,,322,21,56,0.375,,,,18,26,0.692,31.0,59.0,90,12,15.0,18.0,,68,60
76286,1979-80,00,1610612741,CHI,30.0,4,,37,1,3,0.333,0.0,0.0,,0,0,,2.0,8.0,10,1,0.0,3.0,0.0,4,2
77162,1972-73,00,1610612757,POR,24.0,78,,2138,308,620,0.497,,,,156,206,0.757,,,417,200,,,,166,772
77162,1973-74,00,1610612757,POR,25.0,79,,1718,209,434,0.482,,,,77,94,0.819,116.0,208.0,324,167,60.0,30.0,,179,495
77162,1974-75,00,1610612758,KCK,26.0,30,,508,64,130,0.492,,,,33,37,0.892,27.0,39.0,66,30,17.0,13.0,,69,161
77162,1974-75,00,1610612762,NOJ,26.0,43,,1159,139,299,0.465,,,,62,77,0.805,60.0,117.0,177,80,42.0,20.0,,103,340
77162,1974-75,00,0,TOT,26.0,73,,1667,203,429,0.473,,,,95,114,0.833,87.0,156.0,243,110,59.0,33.0,,172,501
77162,1975-76,00,1610612758,KCK,27.0,81,,2150,348,678,0.513,,,,125,149,0.839,116.0,241.0,357,146,67.0,42.0,,217,821
77162,1976-77,00,1610612758,KCK,28.0,81,,1386,218,446,0.489,,,,101,115,0.878,68.0,144.0,212,105,43.0,21.0,,169,537
77162,1977-78,00,1610612737,ATL,29.0,82,,1704,292,619,0.472,,,,111,130,0.854,89.0,171.0,260,120,80.0,36.0,107.0,180,695
77162,1978-79,00,1610612741,CHI,30.0,71,,1734,281,540,0.52,,,,88,110,0.8,58.0,169.0,227,163,54.0,33.0,114.0,182,650
77162,1979-80,00,1610612741,CHI,31.0,79,,1535,262,527,0.497,1.0,11.0,0.091,82,93,0.882,50.0,113.0,163,161,59.0,24.0,96.0,165,607
77162,1980-81,00,1610612755,PHL,32.0,40,,372,87,158,0.551,1.0,6.0,0.167,27,31,0.871,8.0,47.0,55,30,20.0,2.0,25.0,45,202
77162,1981-82,00,1610612755,PHL,33.0,26,0.0,150,27,54,0.5,1.0,3.0,0.333,6,7,0.857,7.0,15.0,22,10,13.0,3.0,13.0,28,61
77334,1977-78,00,1610612741,CHI,23.0,62,,926,127,251,0.506,,,,91,157,0.58,110,191,301,41,21,6,69,78,345
77334,1978-79,00,1610612741,CHI,24.0,80,,1959,278,585,0.475,,,,91,194,0.469,292,450,742,68,27,22,149,125,647
77334,1979-80,00,1610612747,LAL,25.0,23,,374,66,137,0.482,0.0,0.0,0.0,29,56,0.518,69,94,163,14,10,5,25,27,161
77334,1979-80,00,1610612741,CHI,25.0,54,,1136,183,346,0.529,0.0,0.0,0.0,87,166,0.524,157,293,450,32,23,17,75,113,453
77334,1979-80,00,0,TOT,25.0,77,,1510,249,483,0.516,0.0,0.0,,116,222,0.523,226,387,613,46,33,22,100,140,614
77334,1980-81,00,1610612747,LAL,26.0,69,,1086,164,327,0.502,0.0,1.0,0.0,62,116,0.534,152,225,377,27,19,6,65,135,390
77334,1981-82,00,1610612747,LAL,27.0,75,1.0,1134,144,329,0.438,0.0,2.0,0.0,33,65,0.508,164,237,401,32,10,7,49,134,321
77334,1982-83,00,1610612747,LAL,28.0,39,4.0,356,43,102,0.422,0.0,0.0,0.0,12,25,0.48,55,73,128,12,8,4,20,48,98
77334,1983-84,00,1610612737,ATL,29.0,35,0.0,335,19,51,0.373,0.0,0.0,0.0,15,26,0.577,42,77,119,10,6,3,21,32,53
77432,1979-80,00,1610612747,LAL,23.0,27,,155,21,50,0.42,0,1,0.0,9,18,0.5,7,15,22,20,4,0,9,16,51
77432,1979-80,00,1610612741,CHI,23.0,23,,526,77,149,0.517,0,4,0.0,29,33,0.879,25,24,49,33,20,3,26,34,183
77432,1979-80,00,0,TOT,23.0,50,,681,98,199,0.492,0,5,0.0,38,51,0.745,32,39,71,53,24,3,35,50,234
77432,1980-81,00,1610612741,CHI,24.0,3,,16,1,6,0.167,0,0,0.0,1,2,0.5,0,1,1,1,1,0,0,3,3
77432,1980-81,00,1610612742,DAL,24.0,62,,1666,278,600,0.463,0,9,0.0,79,123,0.642,92,137,229,162,55,7,70,114,635
77432,1980-81,00,0,TOT,24.0,65,,1682,279,606,0.46,0,9,0.0,80,125,0.64,92,138,230,163,56,7,70,117,638
77432,1981-82,00,1610612742,DAL,25.0,13,3.0,150,19,59,0.322,0,2,0.0,6,8,0.75,8,10,18,14,5,1,4,6,44
77580,1971-72,00,1610612758,CIN,22.0,78,,1438,287,605,0.474,,,,208,252,0.825,,,148,146,,,,163,782
77580,1972-73,00,1610612758,KCK,23.0,12,,212,26,68,0.382,,,,11,19,0.579,,,22,25,,,,24,63
77580,1972-73,00,1610612765,DET,23.0,67,,1435,294,583,0.504,,,,116,141,0.823,,,159,128,,,,124,704
77580,1972-73,00,0,TOT,23.0,79,,1647,320,651,0.492,,,,127,160,0.794,,,181,153,,,,148,767
77580,1973-74,00,1610612765,DET,24.0,77,,1555,249,558,0.446,,,,182,229,0.795,40.0,166.0,206,148,68.0,7.0,,164,680
77580,1974-75,00,1610612765,DET,25.0,80,,1995,336,701,0.479,,,,211,248,0.851,38.0,153.0,191,201,72.0,4.0,,198,883
77580,1975-76,00,1610612765,DET,26.0,67,,1105,264,540,0.489,,,,192,237,0.81,27.0,88.0,115,108,40.0,5.0,,138,720
77580,1976-77,00,1610612741,CHI,27.0,61,,1178,209,458,0.456,,,,89,113,0.788,29.0,81.0,110,114,37.0,4.0,,102,507
77580,1977-78,00,1610612741,CHI,28.0,81,,1767,325,675,0.481,,,,184,238,0.773,41.0,88.0,129,232,51.0,4.0,124.0,169,834
77580,1978-79,00,1610612741,CHI,29.0,75,,1705,338,689,0.491,,,,150,182,0.824,25.0,93.0,118,187,46.0,4.0,120.0,148,826
77580,1979-80,00,1610612741,CHI,30.0,36,,387,90,166,0.542,0.0,6.0,0.0,39,49,0.796,3.0,20.0,23,38,10.0,0.0,36.0,54,219
77580,1980-81,00,1610612744,GOS,31.0,2,,11,0,4,0.0,0.0,0.0,,0,0,,0.0,0.0,0,2,0.0,0.0,0.0,0,0
78205,1978-79,00,1610612749,MIL,24.0,16,,125,19,47,0.404,,,,18,24,0.75,0,9,9,16,8,7,8,12,56
78205,1979-80,00,1610612741,CHI,25.0,30,,496,97,230,0.422,8.0,35.0,0.229,57,63,0.905,22,32,54,42,25,7,33,54,259
77490,1976-77,00,1610612741,CHI,23.0,72,,2369,431,955,0.451,,,,188,227,0.828,141,296,437,145,78,17,,185,1050
77490,1977-78,00,1610612741,CHI,24.0,55,,1802,280,617,0.454,,,,175,216,0.81,118,214,332,114,50,6,125.0,170,735
77490,1978-79,00,1610612741,CHI,25.0,37,,403,59,136,0.434,,,,30,40,0.75,14,50,64,39,22,1,51.0,51,148
77490,1979-80,00,1610612741,CHI,26.0,54,,1298,264,587,0.45,0.0,4.0,0.0,144,172,0.837,78,140,218,104,45,5,77.0,126,672
77490,1980-81,00,1610612741,CHI,27.0,63,,815,165,338,0.488,0.0,0.0,,113,149,0.758,62,93,155,63,35,7,71.0,83,443
77490,1981-82,00,1610612749,MIL,28.0,65,7.0,1187,212,417,0.508,0.0,4.0,0.0,159,193,0.824,85,133,218,133,50,6,92.0,151,583
77490,1982-83,00,1610612765,DET,29.0,9,1.0,155,21,50,0.42,0.0,0.0,0.0,17,21,0.81,10,16,26,12,5,2,13.0,24,59
78531,1976-77,00,1610612760,SEA,22.0,78,,1552,221,573,0.386,,,,84,122,0.689,96,162,258,171,72,8,,136,526
78531,1977-78,00,1610612743,DEN,23.0,81,,2780,382,936,0.408,,,,157,210,0.748,98,376,474,439,126,21,294.0,275,921
78531,1978-79,00,1610612743,DEN,24.0,80,,2425,396,869,0.456,,,,119,173,0.688,100,314,414,284,118,21,196.0,190,911
78531,1979-80,00,1610612743,DEN,25.0,75,,2381,430,1030,0.417,7.0,34.0,0.206,166,222,0.748,85,231,316,243,93,27,193.0,194,1033
78531,1980-81,00,1610612741,CHI,26.0,80,,2238,330,715,0.462,1.0,10.0,0.1,137,163,0.84,86,196,282,272,102,23,175.0,170,798
78531,1981-82,00,1610612739,CLE,27.0,65,38.0,1805,284,679,0.418,3.0,18.0,0.167,145,185,0.784,60,190,250,237,92,25,138.0,188,716
78531,1982-83,00,1610612739,CLE,28.0,77,11.0,1702,213,511,0.417,0.0,4.0,0.0,93,124,0.75,62,180,242,189,68,16,160.0,157,519
78618,1980-81,00,1610612741,CHI,23.0,64,,945,95,192,0.495,0,4,0.0,45,60,0.75,22,93,115,115,57,6,91,115,235
78618,1981-82,00,1610612762,UTH,24.0,5,0.0,22,2,5,0.4,0,0,,0,0,,1,0,1,3,0,0,2,3,4
76189,1981-82,00,1610612741,CHI,23.0,49,2,546,102,222,0.459,4,18,0.222,18,28,0.643,14,27,41,68,23,2,54,57,226
76304,1981-82,00,1610612741,CHI,24.0,6,0,30,0,4,0.0,0,1,0.0,5,6,0.833,2,4,6,5,6,2,3,6,5
76567,1976-77,00,1610612759,SAN,28.0,82,,1772,285,620,0.46,,,,119,166,0.717,111,261,372,148,88,57,,267,689
76567,1977-78,00,1610612759,SAN,29.0,79,,1876,250,543,0.46,,,,89,114,0.781,73,285,358,217,81,55,144.0,231,589
76567,1978-79,00,1610612759,SAN,30.0,76,,1487,209,400,0.523,,,,79,99,0.798,88,227,315,198,72,38,92.0,206,497
76567,1979-80,00,1610612741,CHI,31.0,79,,1830,227,500,0.454,1.0,9.0,0.111,90,118,0.763,101,262,363,216,89,51,112.0,230,545
76567,1980-81,00,1610612741,CHI,32.0,82,,1243,146,320,0.456,2.0,6.0,0.333,77,111,0.694,79,186,265,118,48,53,88.0,176,371
76567,1981-82,00,1610612741,CHI,33.0,74,0.0,999,92,200,0.46,0.0,1.0,0.0,38,54,0.704,63,125,188,87,49,30,44.0,131,222
76567,1982-83,00,1610612759,SAN,34.0,8,0.0,34,1,5,0.2,0.0,0.0,0.0,0,2,0.0,2,6,8,6,1,0,1.0,6,2
600014,1976-77,00,1610612741,CHI,28.0,82,,2877,570,1091,0.522,,,,387,586,0.66,313,757,1070,199,44,203,,266,1527
600014,1977-78,00,1610612741,CHI,29.0,82,,3067,704,1260,0.559,,,,471,669,0.704,318,753,1071,263,42,181,366.0,261,1879
600014,1978-79,00,1610612741,CHI,30.0,82,,3265,753,1310,0.575,,,,434,587,0.739,293,750,1043,274,50,156,310.0,280,1940
600014,1979-80,00,1610612741,CHI,31.0,48,,1568,305,513,0.595,0.0,0.0,,245,344,0.712,108,324,432,133,29,59,133.0,167,855
600014,1980-81,00,1610612741,CHI,32.0,82,,2832,547,816,0.67,0.0,0.0,,375,532,0.705,220,608,828,172,47,198,236.0,295,1469
600014,1981-82,00,1610612741,CHI,33.0,82,82.0,2796,546,837,0.652,1.0,1.0,1.0,424,552,0.768,224,611,835,136,49,220,227.0,287,1517
600014,1982-83,00,1610612759,SAN,34.0,82,82.0,2797,556,888,0.626,0.0,6.0,0.0,367,496,0.74,299,685,984,126,40,192,254.0,273,1479
600014,1983-84,00,1610612759,SAN,35.0,64,59.0,2034,351,556,0.631,0.0,3.0,0.0,280,390,0.718,213,449,662,70,36,132,149.0,229,982
600014,1984-85,00,1610612759,SAN,36.0,81,81.0,2756,532,854,0.623,0.0,2.0,0.0,484,646,0.749,231,615,846,131,40,173,241.0,306,1548
600014,1985-86,00,1610612759,SAN,37.0,71,71.0,2395,423,684,0.618,0.0,1.0,0.0,338,482,0.701,166,434,600,102,39,108,186.0,239,1184
600014,1986-87,00,1610612759,SAN,38.0,82,74.0,2405,346,580,0.597,0.0,0.0,0.0,242,356,0.68,185,394,579,150,39,95,178.0,235,934
600014,1987-88,00,1610612741,CHI,39.0,24,23.0,372,41,80,0.513,0.0,0.0,0.0,19,37,0.514,15,48,63,9,5,12,28.0,54,101
600014,1987-88,00,1610612738,BOS,39.0,47,4.0,521,58,101,0.574,0.0,0.0,0.0,48,91,0.527,54,94,148,12,10,18,39.0,94,164
600014,1987-88,00,0,TOT,39.0,71,27.0,893,99,181,0.547,0.0,0.0,0.0,67,128,0.523,69,142,211,21,15,30,67.0,148,265
77182,1973-74,00,1610612737,ATL,22.0,74,,1448,238,502,0.474,,,,116,156,0.744,145,309,454,86,29,64,,197,592
77182,1974-75,00,1610612737,ATL,23.0,75,,2086,323,752,0.43,,,,132,183,0.721,236,461,697,152,51,51,,226,778
77182,1975-76,00,1610612737,ATL,24.0,66,,1762,251,542,0.463,,,,163,219,0.744,171,353,524,83,52,61,,214,665
77182,1976-77,00,1610612745,HOU,25.0,74,,1239,167,338,0.494,,,,101,126,0.802,98,186,284,48,38,19,,175,435
77182,1977-78,00,1610612745,HOU,26.0,82,,2476,346,777,0.445,,,,181,233,0.777,215,426,641,109,77,39,165.0,265,873
77182,1978-79,00,1610612745,HOU,27.0,81,,1215,181,395,0.458,,,,96,132,0.727,110,218,328,57,34,26,102.0,204,458
77182,1979-80,00,1610612741,CHI,28.0,53,,1170,207,387,0.535,0.0,0.0,0.0,119,165,0.721,83,213,296,90,24,37,102.0,159,533
77182,1979-80,00,1610612745,HOU,28.0,21,,278,50,119,0.42,0.0,0.0,0.0,27,36,0.75,31,41,72,11,4,5,20.0,48,127
77182,1979-80,00,0,TOT,28.0,74,,1448,257,506,0.508,0.0,0.0,,146,201,0.726,114,254,368,101,28,42,122.0,207,660
77182,1980-81,00,1610612741,CHI,29.0,81,,1574,245,507,0.483,0.0,0.0,,125,161,0.776,127,274,401,99,40,36,126.0,200,615
77182,1981-82,00,1610612741,CHI,30.0,78,18.0,2040,303,572,0.53,1.0,1.0,1.0,172,238,0.723,156,351,507,114,49,36,155.0,217,779
77182,1982-83,00,1610612741,CHI,31.0,49,2.0,673,86,193,0.446,0.0,0.0,0.0,47,75,0.627,56,139,195,40,18,14,66.0,90,219
77182,1982-83,00,1610612747,LAL,31.0,32,0.0,491,62,132,0.47,0.0,1.0,0.0,32,48,0.667,28,86,114,22,13,9,35.0,82,156
77182,1982-83,00,0,TOT,31.0,81,2.0,1164,148,325,0.455,0.0,1.0,0.0,79,123,0.642,84,225,309,62,31,23,101.0,172,375
77246,1976-77,00,1610612759,SAN,24.0,78,,2936,706,1435,0.492,,,,293,356,0.823,282,597,879,229,167,60,,190,1705
77246,1977-78,00,1610612759,SAN,25.0,81,,2869,698,1426,0.489,,,,276,323,0.854,245,528,773,268,115,24,279.0,209,1672
77246,1978-79,00,1610612759,SAN,26.0,81,,2947,748,1484,0.504,,,,295,349,0.845,260,530,790,335,154,19,300.0,192,1791
77246,1979-80,00,1610612759,SAN,27.0,78,,2798,647,1333,0.485,1.0,9.0,0.111,270,345,0.783,258,517,775,231,111,18,232.0,192,1565
77246,1980-81,00,1610612741,CHI,28.0,77,,2161,454,946,0.48,0.0,0.0,,180,245,0.735,179,219,398,120,75,18,161.0,160,1088
77246,1981-82,00,1610612741,CHI,29.0,60,30.0,1036,192,412,0.466,0.0,0.0,,50,88,0.568,72,108,180,65,30,7,82.0,71,434
77246,1982-83,00,1610612741,CHI,30.0,5,0.0,25,2,6,0.333,0.0,0.0,0.0,0,0,0.0,1,3,4,0,1,0,2.0,2,4
77246,1982-83,00,1610612744,GOS,30.0,11,0.0,121,17,39,0.436,0.0,0.0,0.0,7,11,0.636,13,13,26,5,1,0,6.0,13,41
77246,1982-83,00,1610612739,CLE,30.0,32,7.0,624,100,212,0.472,0.0,1.0,0.0,35,46,0.761,52,65,117,34,21,9,39.0,49,235
77246,1982-83,00,0,TOT,30.0,48,7.0,770,119,257,0.463,0.0,1.0,0.0,42,57,0.737,66,81,147,39,23,9,47.0,64,280
77989,1978-79,00,1610612760,SEA,24.0,12,,105,19,41,0.463,,,,8,15,0.533,9,10,19,13,5,1,11,9,46
77989,1979-80,00,1610612765,DET,25.0,7,,51,9,17,0.529,0.0,1.0,0.0,9,11,0.818,3,2,5,0,3,3,2,8,27
77989,1981-82,00,1610612741,CHI,27.0,3,0.0,29,3,9,0.333,0.0,0.0,,4,4,1.0,3,0,3,0,0,0,1,1,10
78215,1975-76,00,1610612756,PHX,23.0,78,,1898,280,623,0.449,,,,158,192,0.823,80,179,259,215,106,7,,253,718
78215,1976-77,00,1610612756,PHX,24.0,79,,2005,414,834,0.496,,,,243,289,0.841,82,152,234,238,93,14,,258,1071
78215,1977-78,00,1610612754,IND,25.0,79,,3019,553,1221,0.453,,,,330,400,0.825,92,235,327,584,170,23,352.0,308,1436
78215,1978-79,00,1610612754,IND,26.0,81,,2825,553,1194,0.463,,,,298,338,0.882,118,183,301,450,138,23,304.0,315,1404
78215,1979-80,00,1610612741,CHI,27.0,82,,2673,470,1002,0.469,21.0,68.0,0.309,200,239,0.837,75,167,242,426,136,17,282.0,294,1161
78215,1980-81,00,1610612741,CHI,28.0,71,,1803,355,769,0.462,17.0,66.0,0.258,231,247,0.935,46,98,144,284,98,17,206.0,225,958
78215,1981-82,00,1610612741,CHI,29.0,80,6.0,1938,363,801,0.453,19.0,76.0,0.25,195,254,0.768,37,105,142,301,73,18,217.0,238,940
78215,1982-83,00,1610612764,WAS,30.0,41,39.0,1438,234,534,0.438,23.0,55.0,0.418,154,185,0.832,35,67,102,218,61,14,147.0,158,645
78215,1983-84,00,1610612764,WAS,31.0,81,81.0,2624,508,1115,0.456,29.0,111.0,0.261,221,264,0.837,51,128,179,377,117,17,222.0,278,1266
78215,1984-85,00,1610612760,SEA,32.0,71,12.0,1490,280,628,0.446,8.0,28.0,0.286,132,162,0.815,27,76,103,252,49,9,158.0,156,700
78215,1985-86,00,1610612760,SEA,33.0,78,0.0,1279,240,541,0.444,13.0,43.0,0.302,110,125,0.88,29,70,99,180,44,2,85.0,139,603
78533,1980-81,00,1610612741,CHI,23.0,48,,540,85,184,0.462,0,1,0.0,29,42,0.69,36,60,96,30,25,12,34,86,199
78533,1981-82,00,1610612741,CHI,24.0,57,22.0,862,128,266,0.481,0,1,0.0,58,80,0.725,62,97,159,64,30,18,62,112,314
78533,1982-83,00,1610612765,DET,25.0,9,0.0,129,11,34,0.324,0,1,0.0,12,15,0.8,9,10,19,10,3,1,5,22,34
76231,1979-80,00,1610612754,IND,23.0,82,37,2027,275,609,0.452,2,5,0.4,136,174,0.782,69,154,223,252,211,48,166,194,688
76231,1980-81,00,1610612754,IND,24.0,82,24,1867,265,559,0.474,2,16,0.125,125,178,0.702,70,123,193,188,186,37,122,236,657
76231,1981-82,00,1610612756,PHX,25.0,64,3,937,125,281,0.445,1,4,0.25,74,100,0.74,30,57,87,80,78,10,71,115,325
76231,1982-83,00,1610612741,CHI,26.0,58,11,683,82,159,0.516,1,5,0.2,36,45,0.8,27,78,105,106,49,10,59,91,201
76231,1984-85,00,1610612764,WAS,28.0,73,24,1232,142,299,0.475,20,65,0.308,54,79,0.684,34,100,134,173,96,21,84,152,358
76231,1985-86,00,1610612764,WAS,29.0,70,7,842,73,209,0.349,17,68,0.25,32,56,0.571,24,71,95,107,85,3,44,101,195
76231,1986-87,00,1610612749,MIL,30.0,68,2,900,76,213,0.357,13,50,0.26,47,58,0.81,31,71,102,66,105,8,34,118,212
76231,1987-88,00,1610612749,MIL,31.0,2,0,5,0,1,0.0,0,1,0.0,0,0,0.0,0,1,1,1,0,0,0,2,0
76231,1987-88,00,1610612751,NJN,31.0,63,15,1432,156,364,0.429,37,101,0.366,74,97,0.763,25,101,126,150,114,43,88,170,423
76231,1987-88,00,0,TOT,31.0,65,15,1437,156,365,0.427,37,102,0.363,74,97,0.763,25,102,127,151,114,43,88,172,423
76231,1988-89,00,1610612737,ATL,32.0,38,0,267,28,86,0.326,8,31,0.258,8,16,0.5,7,25,32,24,16,2,14,41,72
76242,1977-78,00,1610612756,PHX,22.0,80,0,933,159,395,0.403,,,,56,68,0.824,42,73,115,123,39,5,89,104,374
76242,1978-79,00,1610612756,PHX,23.0,77,0,1297,242,533,0.454,,,,139,170,0.818,55,86,141,179,64,7,135,151,623
76242,1979-80,00,1610612756,PHX,24.0,82,1,1589,269,687,0.392,21.0,86.0,0.244,141,162,0.87,50,117,167,223,93,9,135,165,700
76242,1980-81,00,1610612739,CLE,25.0,80,79,2595,319,817,0.39,57.0,169.0,0.337,107,132,0.811,66,132,198,452,136,17,162,194,802
76242,1981-82,00,1610612759,SAN,26.0,81,3,1616,230,565,0.407,46.0,138.0,0.333,119,152,0.783,40,126,166,438,65,11,139,183,625
76242,1982-83,00,1610612741,CHI,27.0,15,0,140,14,42,0.333,1.0,8.0,0.125,10,13,0.769,3,16,19,23,7,0,14,20,39
76242,1983-84,00,1610612744,GOS,28.0,82,0,1428,213,521,0.409,15.0,51.0,0.294,120,137,0.876,41,102,143,252,84,6,109,155,561
76242,1984-85,00,1610612744,GOS,29.0,56,6,746,106,250,0.424,6.0,26.0,0.231,69,82,0.841,11,47,58,122,47,4,54,76,287
76242,1985-86,00,1610612758,SAC,30.0,33,0,269,26,70,0.371,4.0,14.0,0.286,14,18,0.778,2,21,23,39,13,0,17,43,70
77110,1981-82,00,1610612738,BOS,23.0,11,0,66,10,26,0.385,0,0,0.0,6,10,0.6,7,5,12,5,3,0,6,5,26
77110,1981-82,00,1610612741,CHI,23.0,38,0,412,69,146,0.473,0,0,0.0,32,39,0.821,28,23,51,22,11,3,18,43,170
77110,1981-82,00,0,TOT,23.0,49,0,478,79,172,0.459,0,0,,38,49,0.776,35,28,63,27,14,3,24,48,196
77110,1982-83,00,1610612741,CHI,24.0,78,3,1309,199,426,0.467,2,13,0.154,92,126,0.73,87,92,179,105,64,11,83,132,492
77110,1983-84,00,1610612754,IND,25.0,2,0,10,1,4,0.25,0,0,0.0,4,4,1.0,1,0,1,0,0,0,1,3,6
77756,1976-77,00,1610612759,SAN,21.0,82,,1949,301,598,0.503,,,,251,316,0.794,162,287,449,119,59,29,,277,853
77756,1977-78,00,1610612759,SAN,22.0,79,,1773,231,480,0.481,,,,184,227,0.811,104,269,373,131,45,26,118.0,235,646
77756,1978-79,00,1610612759,SAN,23.0,80,,1885,261,551,0.474,,,,233,290,0.803,96,333,429,211,53,18,163.0,282,755
77756,1979-80,00,1610612759,SAN,24.0,75,,2111,291,609,0.478,0.0,3.0,0.0,210,264,0.795,83,335,418,327,67,22,180.0,274,792
77756,1980-81,00,1610612759,SAN,25.0,82,,2408,348,685,0.508,1.0,7.0,0.143,315,380,0.829,146,325,471,277,75,31,202.0,307,1012
77756,1981-82,00,1610612759,SAN,26.0,68,63.0,2098,333,705,0.472,2.0,12.0,0.167,273,338,0.808,118,321,439,202,57,29,139.0,253,941
77756,1982-83,00,1610612741,CHI,27.0,80,31.0,1817,251,522,0.481,2.0,12.0,0.167,194,248,0.782,108,250,358,131,50,9,152.0,246,698
77756,1983-84,00,1610612758,KCK,28.0,81,81.0,2160,249,504,0.494,0.0,1.0,0.0,261,318,0.821,119,326,445,192,50,28,166.0,291,759
77756,1984-85,00,1610612758,KCK,29.0,81,62.0,2277,265,528,0.502,0.0,3.0,0.0,293,352,0.832,139,374,513,243,56,11,185.0,298,823
77756,1985-86,00,1610612758,SAC,30.0,81,64.0,2157,225,403,0.558,0.0,2.0,0.0,162,210,0.771,113,310,423,266,43,23,148.0,276,612
77756,1986-87,00,1610612758,SAC,31.0,76,0.0,1002,69,165,0.418,0.0,1.0,0.0,116,131,0.885,50,135,185,91,18,9,56.0,144,254
78233,1981-82,00,1610612745,HOU,22.0,4,0,37,7,11,0.636,0,0,,0,2,0.0,2,4,6,4,2,0,4,7,14
78233,1982-83,00,1610612741,CHI,23.0,9,0,39,8,20,0.4,0,0,0.0,5,7,0.714,2,7,9,3,1,2,2,3,21
78233,1983-84,00,1610612747,LAL,24.0,38,0,363,44,82,0.537,0,2,0.0,36,50,0.72,16,45,61,30,12,4,34,55,124
78233,1984-85,00,1610612747,LAL,25.0,75,32,1292,194,354,0.548,0,3,0.0,112,146,0.767,77,150,227,132,47,13,115,195,500
78233,1985-86,00,1610612747,LAL,26.0,43,7,471,88,192,0.458,0,1,0.0,38,49,0.776,28,53,81,49,18,9,54,78,214
78310,1978-79,00,1610612741,CHI,21.0,82,,2753,537,1119,0.48,,,,264,347,0.761,92,136,228,429,93,18,303,270,1338
78310,1979-80,00,1610612741,CHI,22.0,82,,3029,566,1172,0.483,28.0,105.0,0.267,500,597,0.838,143,186,329,515,114,20,348,262,1660
78310,1980-81,00,1610612741,CHI,23.0,82,,2820,543,1097,0.495,18.0,90.0,0.2,445,550,0.809,124,163,287,426,122,20,259,258,1549
78310,1981-82,00,1610612741,CHI,24.0,82,82.0,2838,560,1194,0.469,25.0,100.0,0.25,363,449,0.808,115,197,312,476,87,16,277,243,1508
78310,1982-83,00,1610612741,CHI,25.0,82,81.0,2856,749,1567,0.478,21.0,91.0,0.231,434,542,0.801,91,209,300,484,143,17,321,281,1953
78310,1983-84,00,1610612741,CHI,26.0,31,6.0,601,92,237,0.388,3.0,15.0,0.2,84,108,0.778,21,25,46,142,21,3,59,78,271
78310,1983-84,00,1610612758,KCK,26.0,30,29.0,897,170,388,0.438,4.0,27.0,0.148,130,173,0.751,29,54,83,210,29,9,97,93,474
78310,1983-84,00,0,TOT,26.0,61,35.0,1498,262,625,0.419,7.0,42.0,0.167,214,281,0.762,50,79,129,352,50,12,156,171,745
78310,1984-85,00,1610612758,KCK,27.0,82,80.0,2543,501,1029,0.487,5.0,38.0,0.132,334,387,0.863,106,164,270,656,95,18,307,250,1341
78310,1985-86,00,1610612758,SAC,28.0,82,82.0,2919,546,1137,0.48,6.0,35.0,0.171,405,490,0.827,73,231,304,788,112,20,327,231,1503
78310,1986-87,00,1610612758,SAC,29.0,79,76.0,2872,577,1223,0.472,17.0,78.0,0.218,429,495,0.867,86,180,266,692,78,16,289,208,1600
78310,1987-88,00,1610612758,SAC,30.0,73,73.0,2653,619,1318,0.47,16.0,59.0,0.271,320,385,0.831,72,160,232,463,59,16,234,173,1574
78310,1988-89,00,1610612737,ATL,31.0,82,82.0,2517,497,1067,0.466,17.0,58.0,0.293,285,335,0.851,86,156,242,387,108,16,194,236,1296
78310,1989-90,00,1610612753,ORL,32.0,76,71.0,2350,517,1178,0.439,26.0,105.0,0.248,378,443,0.853,75,146,221,407,60,12,226,194,1438
78310,1990-91,00,1610612751,NJN,33.0,81,81.0,2955,583,1247,0.468,52.0,144.0,0.361,292,343,0.851,69,160,229,378,85,35,252,231,1510
76291,1983-84,00,1610612741,CHI,24.0,29,0,317,52,133,0.391,0,0,0.0,14,33,0.424,37,43,80,13,9,11,16,48,118
76291,1984-85,00,1610612742,DAL,25.0,56,35,860,67,148,0.453,0,0,0.0,30,44,0.682,74,167,241,84,21,24,46,110,164
76291,1985-86,00,1610612742,DAL,26.0,9,8,154,11,30,0.367,0,0,0.0,6,11,0.545,9,24,33,11,3,2,7,26,28
76291,1985-86,00,1610612746,LAC,26.0,8,0,64,4,18,0.222,0,0,0.0,5,8,0.625,8,12,20,4,2,3,2,12,13
76291,1985-86,00,0,TOT,26.0,17,8,218,15,48,0.313,0,0,0.0,11,19,0.579,17,36,53,15,5,5,9,38,41
77373,1980-81,00,1610612741,CHI,22.0,8,,83,10,24,0.417,0,0,,10,11,0.909,3,3,6,7,2,0,9,5,30
77373,1981-82,00,1610612741,CHI,23.0,75,74.0,2252,329,657,0.501,4,8,0.5,208,256,0.813,75,138,213,362,80,14,185,158,870
77373,1982-83,00,1610612741,CHI,24.0,65,38.0,1437,202,446,0.453,0,5,0.0,124,171,0.725,46,126,172,332,51,6,134,121,528
77373,1983-84,00,1610612741,CHI,25.0,43,3.0,687,78,188,0.415,1,5,0.2,75,87,0.862,20,26,46,168,30,6,72,59,232
77373,1984-85,00,1610612747,LAL,26.0,32,1.0,278,34,82,0.415,0,1,0.0,21,31,0.677,4,22,26,80,15,3,32,25,89
77373,1985-86,00,1610612747,LAL,27.0,27,0.0,222,26,52,0.5,0,3,0.0,15,19,0.789,0,10,10,54,9,3,42,27,67
78523,1983-84,00,1610612741,CHI,24.0,82,40,2123,399,890,0.448,7,29,0.241,213,287,0.742,138,190,328,187,106,11,139,278,1018
78523,1984-85,00,1610612745,HOU,25.0,82,24,1575,318,657,0.484,6,23,0.261,96,131,0.733,110,125,235,119,83,13,90,195,738
78523,1985-86,00,1610612745,HOU,26.0,78,0,1198,222,489,0.454,1,12,0.083,86,118,0.729,87,72,159,101,59,5,62,155,531
78523,1986-87,00,1610612745,HOU,27.0,32,19,788,153,350,0.437,0,5,0.0,49,65,0.754,74,59,133,76,44,3,50,82,355
78523,1989-90,00,1610612745,HOU,30.0,66,52,1852,416,853,0.488,0,3,0.0,192,237,0.81,133,153,286,104,85,1,87,165,1024
78523,1991-92,00,1610612755,PHL,32.0,49,0,569,88,229,0.384,0,1,0.0,35,51,0.686,43,51,94,22,20,1,25,67,211
76881,1979-80,00,1610612741,CHI,23.0,82,82,2791,498,1051,0.474,1,7,0.143,337,416,0.81,223,550,773,182,60,129,210,313,1334
76881,1980-81,00,1610612741,CHI,24.0,82,82,2710,481,989,0.486,0,2,0.0,217,290,0.748,243,481,724,218,77,124,192,282,1179
76881,1981-82,00,1610612741,CHI,25.0,82,82,2914,480,1014,0.473,0,3,0.0,240,291,0.825,192,594,786,262,70,93,180,292,1200
76881,1982-83,00,1610612741,CHI,26.0,79,61,2355,312,686,0.455,0,4,0.0,165,233,0.708,217,548,765,151,54,90,154,261,789
76881,1983-84,00,1610612741,CHI,27.0,78,76,2718,369,753,0.49,0,1,0.0,213,289,0.737,214,572,786,139,67,72,149,265,951
76881,1984-85,00,1610612741,CHI,28.0,61,28,1523,152,332,0.458,0,1,0.0,67,94,0.713,108,280,388,78,34,21,63,190,371
76881,1985-86,00,1610612759,SAN,29.0,68,24,1910,198,388,0.51,0,1,0.0,142,184,0.772,151,380,531,90,37,52,113,207,538
76881,1986-87,00,1610612759,SAN,30.0,79,78,2587,336,655,0.513,3,6,0.5,241,307,0.785,256,527,783,237,71,50,161,248,916
76881,1987-88,00,1610612759,SAN,31.0,45,40,1236,151,328,0.46,0,2,0.0,83,111,0.748,92,208,300,97,33,22,74,134,385
76881,1988-89,00,1610612759,SAN,32.0,38,15,912,105,247,0.425,0,0,0.0,84,105,0.8,92,146,238,55,30,24,55,123,294
76881,1988-89,00,1610612743,DEN,32.0,29,3,491,62,148,0.419,0,0,0.0,48,71,0.676,48,116,164,41,17,28,36,78,172
76881,1988-89,00,0,TOT,32.0,67,18,1403,167,395,0.423,0,0,0.0,132,176,0.75,140,262,402,96,47,52,91,201,466
76881,1989-90,00,1610612765,DET,33.0,37,0,205,22,52,0.423,0,0,0.0,16,29,0.552,24,54,78,12,4,9,16,40,60
76881,1990-91,00,1610612759,SAN,34.0,63,11,1018,85,169,0.503,0,2,0.0,69,94,0.734,61,160,221,52,29,25,71,172,239
77134,1981-82,00,1610612758,KCK,24.0,78,50,1741,395,644,0.613,0,0,0.0,212,330,0.642,152,307,459,91,39,89,197,372,1002
77134,1982-83,00,1610612758,KCK,25.0,79,21,1544,371,595,0.624,0,0,0.0,186,324,0.574,140,258,398,95,40,83,180,323,928
77134,1983-84,00,1610612758,KCK,26.0,50,13,893,189,342,0.553,0,0,0.0,101,177,0.571,94,158,252,63,22,48,105,188,479
77134,1983-84,00,1610612741,CHI,26.0,31,8,594,113,198,0.571,0,0,0.0,64,110,0.582,68,98,166,18,15,21,59,119,290
77134,1983-84,00,0,TOT,26.0,81,21,1487,302,540,0.559,0,0,0.0,165,287,0.575,162,256,418,81,37,69,164,307,769
77134,1984-85,00,1610612741,CHI,27.0,74,54,1659,281,516,0.545,0,3,0.0,181,252,0.718,146,291,437,64,37,62,151,265,743
77134,1985-86,00,1610612759,SAN,28.0,71,55,1828,362,573,0.632,0,0,0.0,259,373,0.694,143,319,462,95,44,66,191,291,983
77134,1986-87,00,1610612757,POR,29.0,79,74,2345,494,889,0.556,0,0,0.0,342,490,0.698,194,372,566,155,49,76,276,340,1330
77134,1987-88,00,1610612757,POR,30.0,43,33,1050,258,488,0.529,0,1,0.0,146,249,0.586,84,158,242,57,17,32,122,151,662
77134,1988-89,00,1610612757,POR,31.0,72,11,1477,296,565,0.524,0,0,0.0,129,245,0.527,135,223,358,105,20,44,140,254,721
77134,1989-90,00,1610612750,MIN,32.0,4,0,17,0,2,0.0,0,0,0.0,0,0,0.0,0,3,3,1,0,0,6,4,0
77134,1989-90,00,1610612760,SEA,32.0,21,0,242,48,90,0.533,0,0,0.0,21,35,0.6,19,31,50,16,3,5,25,52,117
77134,1989-90,00,0,TOT,32.0,25,0,259,48,92,0.522,0,0,0.0,21,35,0.6,19,34,53,17,3,5,31,56,117
77134,1990-91,00,1610612744,GOS,33.0,24,8,228,34,63,0.54,0,0,0.0,22,37,0.595,18,39,57,17,4,4,25,50,90
77175,1976-77,00,1610612755,PHL,26.0,82,,2023,215,424,0.507,,,,64,116,0.552,190,476,666,92,43,200,,301,494
77175,1977-78,00,1610612755,PHL,27.0,80,,1636,169,359,0.471,,,,96,153,0.627,165,405,570,92,26,127,128.0,281,434
77175,1978-79,00,1610612755,PHL,28.0,78,,2171,302,637,0.474,,,,121,162,0.747,177,570,747,151,39,157,156.0,303,725
77175,1979-80,00,1610612755,PHL,29.0,80,,2771,232,532,0.436,0.0,2.0,0.0,124,178,0.697,219,731,950,164,43,162,218.0,298,588
77175,1980-81,00,1610612755,PHL,30.0,81,,2639,218,485,0.449,0.0,0.0,,148,193,0.767,200,613,813,122,53,134,168.0,271,584
77175,1981-82,00,1610612755,PHL,31.0,81,47.0,2446,231,465,0.497,0.0,3.0,0.0,179,219,0.817,164,544,708,100,38,146,155.0,301,641
77175,1982-83,00,1610612745,HOU,32.0,82,82.0,2440,307,677,0.453,0.0,2.0,0.0,162,206,0.786,222,446,668,138,46,131,171.0,278,776
77175,1983-84,00,1610612745,HOU,33.0,81,73.0,2506,318,633,0.502,1.0,3.0,0.333,164,196,0.837,168,414,582,156,46,80,158.0,335,801
77175,1984-85,00,1610612741,CHI,34.0,42,32.0,885,53,115,0.461,0.0,2.0,0.0,36,47,0.766,49,162,211,34,12,31,40.0,125,142
77175,1985-86,00,1610612757,POR,35.0,80,19.0,1437,126,254,0.496,0.0,7.0,0.0,124,150,0.827,105,250,355,74,38,61,102.0,244,376
77175,1986-87,00,1610612757,POR,36.0,78,37.0,1578,111,224,0.496,0.0,2.0,0.0,97,124,0.782,114,341,455,64,23,77,87.0,227,319
77175,1987-88,00,1610612757,POR,37.0,79,77.0,1778,128,263,0.487,0.0,4.0,0.0,78,106,0.736,105,303,408,81,29,99,82.0,251,334
77175,1988-89,00,1610612757,POR,38.0,72,40.0,1279,77,183,0.421,0.0,1.0,0.0,48,61,0.787,88,212,300,59,24,85,83.0,166,202
77175,1989-90,00,1610612759,SAN,39.0,72,2.0,885,67,144,0.465,1.0,5.0,0.2,38,54,0.704,76,154,230,20,20,27,48.0,146,173
77484,1980-81,00,1610612764,WAS,21.0,45,,1161,224,449,0.499,5,15,0.333,99,129,0.767,30,37,67,199,46,10,149,120,552
77484,1980-81,00,1610612737,ATL,21.0,34,,1105,161,330,0.488,0,6,0.0,103,123,0.837,16,56,72,212,61,7,112,122,425
77484,1980-81,00,0,TOT,21.0,79,,2266,385,779,0.494,5,21,0.238,202,252,0.802,46,93,139,411,107,17,261,242,977
77484,1981-82,00,1610612737,ATL,22.0,47,5.0,837,131,298,0.44,2,8,0.25,60,79,0.759,19,39,58,139,53,2,63,129,324
77484,1982-83,00,1610612737,ATL,23.0,64,0.0,1187,171,424,0.403,14,48,0.292,86,112,0.768,25,66,91,249,60,8,123,129,442
77484,1983-84,00,1610612737,ATL,24.0,6,0.0,96,16,30,0.533,0,1,0.0,18,22,0.818,1,3,4,21,5,1,10,13,50
77484,1983-84,00,1610612755,PHL,24.0,14,5.0,292,45,101,0.446,1,7,0.143,9,14,0.643,6,17,23,62,11,2,30,32,100
77484,1983-84,00,0,TOT,24.0,20,5.0,388,61,131,0.466,1,8,0.125,27,36,0.75,7,20,27,83,16,3,40,45,150
77484,1984-85,00,1610612741,CHI,25.0,78,38.0,1523,191,386,0.495,2,16,0.125,59,85,0.694,16,51,67,354,73,12,124,133,443
77484,1985-86,00,1610612759,SAN,26.0,75,46.0,1853,320,603,0.531,4,25,0.16,173,211,0.82,30,101,131,476,87,32,232,168,817
77484,1986-87,00,1610612747,LAL,27.0,50,0.0,532,89,187,0.476,1,3,0.333,29,36,0.806,13,34,47,100,23,4,51,53,208
77484,1987-88,00,1610612747,LAL,28.0,51,8.0,706,114,248,0.46,7,30,0.233,54,65,0.831,16,50,66,138,25,3,69,65,289
77484,1989-90,00,1610612737,ATL,30.0,1,0.0,13,1,3,0.333,0,1,0.0,2,2,1.0,0,0,0,5,0,0,0,0,4
941,1983-84,00,1610612741,CHI,21.0,80,73,2159,261,556,0.469,0,2,0.0,146,200,0.73,63,134,197,662,119,17,268,223,668
941,1984-85,00,1610612741,CHI,22.0,70,44,1385,140,313,0.447,1,9,0.111,68,86,0.791,34,67,101,381,66,10,144,141,349
941,1985-86,00,1610612739,CLE,23.0,8,0,66,9,19,0.474,0,0,0.0,4,7,0.571,2,5,7,13,5,0,6,8,22
941,1985-86,00,1610612764,WAS,23.0,4,0,27,5,14,0.357,0,0,0.0,1,3,0.333,2,5,7,7,0,1,0,1,11
941,1985-86,00,1610612759,SAN,23.0,2,1,14,1,2,0.5,0,0,0.0,0,0,0.0,0,0,0,3,0,0,4,1,2
941,1985-86,00,0,TOT,23.0,14,1,107,15,35,0.429,0,0,0.0,5,10,0.5,4,10,14,23,5,1,10,10,35
941,1986-87,00,1610612764,WAS,24.0,73,72,1816,246,515,0.478,0,2,0.0,126,165,0.764,58,136,194,392,92,10,138,172,618
941,1987-88,00,1610612737,ATL,25.0,5,0,24,4,9,0.444,0,0,0.0,3,4,0.75,0,4,4,2,2,0,4,3,11
941,1988-89,00,1610612746,LAC,26.0,8,0,90,12,33,0.364,0,0,0.0,10,11,0.909,2,14,16,22,7,1,11,15,34
941,1991-92,00,1610612757,POR,29.0,23,0,209,21,51,0.412,0,4,0.0,27,31,0.871,6,15,21,34,14,3,14,12,69
941,1993-94,00,1610612737,ATL,31.0,82,1,1004,120,236,0.508,0,6,0.0,52,66,0.788,22,77,99,181,59,2,78,93,292
941,1994-95,00,1610612737,ATL,32.0,27,2,292,24,53,0.453,2,8,0.25,20,32,0.625,9,21,30,54,19,0,19,37,70
941,1996-97,00,1610612757,POR,34.0,3,0,21,2,4,0.5,0,0,0.0,0,0,0.0,0,3,3,3,0,0,1,5,4
76268,1984-85,00,1610612754,IND,24.0,82,26,1586,214,465,0.46,0,6,0.0,116,171,0.678,146,142,288,159,59,12,116,212,544
76268,1985-86,00,1610612741,CHI,25.0,10,0,132,18,41,0.439,0,2,0.0,9,13,0.692,5,11,16,14,5,1,4,16,45
76268,1986-87,00,1610612751,NJN,26.0,77,67,2339,358,810,0.442,5,20,0.25,152,206,0.738,84,135,219,259,89,14,153,273,873
76268,1988-89,00,1610612745,HOU,28.0,14,0,91,14,45,0.311,2,9,0.222,6,8,0.75,7,8,15,5,3,0,7,14,36
76268,1988-89,00,1610612749,MIL,28.0,29,0,274,36,73,0.493,2,7,0.286,18,23,0.783,15,14,29,21,12,4,10,28,92
76268,1988-89,00,0,TOT,28.0,43,0,365,50,118,0.424,4,16,0.25,24,31,0.774,22,22,44,26,15,4,17,42,128
76268,1989-90,00,1610612749,MIL,29.0,61,10,635,88,206,0.427,5,20,0.25,38,56,0.679,39,33,72,41,32,4,51,79,219
76268,1990-91,00,1610612747,LAL,30.0,7,0,27,2,3,0.667,1,1,1.0,0,0,0.0,0,4,4,3,0,0,4,8,5
76268,1990-91,00,1610612762,UTH,30.0,23,0,267,28,77,0.364,2,11,0.182,20,23,0.87,24,15,39,13,4,0,12,39,78
76268,1990-91,00,0,TOT,30.0,30,0,294,30,80,0.375,3,12,0.25,20,23,0.87,24,19,43,16,4,0,16,47,83
76268,1991-92,00,1610612746,LAC,31.0,21,0,253,39,89,0.438,7,22,0.318,18,29,0.621,9,19,28,16,12,1,14,31,103
76268,1991-92,00,1610612760,SEA,31.0,35,2,401,63,160,0.394,12,41,0.293,30,37,0.811,23,33,56,32,18,4,21,51,168
76268,1991-92,00,0,TOT,31.0,56,2,654,102,249,0.41,19,63,0.302,48,66,0.727,32,52,84,48,30,5,35,82,271
76497,1982-83,00,1610612741,CHI,22.0,76,32,2081,470,1008,0.466,5,25,0.2,206,282,0.73,87,173,260,280,72,10,205,248,1151
76497,1983-84,00,1610612741,CHI,23.0,82,42,2449,583,1229,0.474,4,32,0.125,321,396,0.811,61,174,235,254,109,11,220,218,1491
76497,1984-85,00,1610612741,CHI,24.0,79,0,2101,525,1111,0.473,7,30,0.233,205,251,0.817,57,151,208,191,71,5,154,192,1262
76497,1985-86,00,1610612741,CHI,25.0,35,0,723,203,470,0.432,0,8,0.0,163,198,0.823,20,48,68,67,22,5,67,86,569
76497,1986-87,00,1610612746,LAC,26.0,49,5,924,200,491,0.407,1,10,0.1,119,155,0.768,34,49,83,79,43,8,71,113,520
76497,1987-88,00,1610612746,LAC,27.0,67,7,1282,328,755,0.434,2,12,0.167,243,313,0.776,62,92,154,109,69,4,123,128,901
76497,1988-89,00,1610612746,LAC,28.0,69,51,1722,448,964,0.465,1,9,0.111,217,286,0.759,69,135,204,154,90,6,122,152,1114
76497,1989-90,00,1610612760,SEA,29.0,30,2,491,97,240,0.404,1,5,0.2,52,66,0.788,18,33,51,34,12,0,34,63,247
76497,1990-91,00,1610612760,SEA,30.0,30,0,299,73,155,0.471,0,1,0.0,38,62,0.613,11,21,32,16,7,1,19,25,184
76497,1991-92,00,1610612760,SEA,31.0,11,1,98,9,37,0.243,0,1,0.0,13,16,0.813,2,10,12,4,5,1,10,6,31
76804,1976-77,00,1610612759,SAN,25.0,82,,2705,726,1335,0.544,,,,443,532,0.833,134,320,454,238,105,104,,286,1895
76804,1977-78,00,1610612759,SAN,26.0,82,,2857,864,1611,0.536,,,,504,607,0.83,118,302,420,302,136,110,306.0,255,2232
76804,1978-79,00,1610612759,SAN,27.0,80,,2888,947,1749,0.541,,,,471,570,0.826,142,258,400,219,137,91,286.0,275,2365
76804,1979-80,00,1610612759,SAN,28.0,78,,2934,1024,1940,0.528,32.0,102.0,0.314,505,593,0.852,154,249,403,202,110,79,254.0,208,2585
76804,1980-81,00,1610612759,SAN,29.0,82,,2765,850,1729,0.492,9.0,35.0,0.257,512,620,0.826,126,293,419,260,94,56,251.0,212,2221
76804,1981-82,00,1610612759,SAN,30.0,79,79.0,2817,993,1987,0.5,10.0,36.0,0.278,555,642,0.864,138,254,392,187,77,45,210.0,215,2551
76804,1982-83,00,1610612759,SAN,31.0,78,78.0,2830,757,1553,0.487,12.0,33.0,0.364,517,606,0.853,111,246,357,264,88,67,247.0,243,2043
76804,1983-84,00,1610612759,SAN,32.0,76,76.0,2584,765,1561,0.49,10.0,24.0,0.417,427,507,0.842,106,207,313,220,79,47,224.0,219,1967
76804,1984-85,00,1610612759,SAN,33.0,72,69.0,2091,600,1182,0.508,0.0,10.0,0.0,324,384,0.844,79,155,234,178,66,48,198.0,208,1524
76804,1985-86,00,1610612741,CHI,34.0,82,75.0,2065,519,1100,0.472,4.0,19.0,0.211,283,322,0.879,78,137,215,144,49,23,161.0,210,1325
76876,1983-84,00,1610612741,CHI,23.0,49,0,667,100,228,0.439,0,0,0.0,55,77,0.714,58,116,174,25,18,17,60,128,255
76876,1984-85,00,1610612741,CHI,24.0,48,1,740,108,250,0.432,0,4,0.0,79,98,0.806,72,174,246,29,11,11,68,102,295
76876,1985-86,00,1610612741,CHI,25.0,80,68,2307,407,875,0.465,0,8,0.0,262,335,0.782,208,450,658,139,70,37,220,292,1076
76876,1986-87,00,1610612765,DET,26.0,80,69,1792,256,542,0.472,0,2,0.0,119,177,0.672,196,457,653,62,41,50,127,197,631
76876,1987-88,00,1610612752,NYK,27.0,82,65,2049,258,585,0.441,0,2,0.0,126,190,0.663,221,421,642,93,65,32,148,318,642
76876,1988-89,00,1610612752,NYK,28.0,82,0,1277,194,422,0.46,0,3,0.0,129,170,0.759,157,237,394,76,47,18,125,172,517
76876,1989-90,00,1610612753,ORL,29.0,73,31,1860,312,667,0.468,1,3,0.333,136,209,0.651,166,422,588,99,50,26,119,231,761
76876,1990-91,00,1610612759,SAN,30.0,66,7,1099,177,384,0.461,0,3,0.0,89,105,0.848,98,215,313,52,32,13,89,172,443
76876,1991-92,00,1610612759,SAN,31.0,80,1,1127,147,344,0.427,0,0,0.0,73,89,0.82,92,250,342,36,29,11,62,148,367
76876,1992-93,00,1610612759,SAN,32.0,15,0,202,20,49,0.408,0,0,0.0,13,15,0.867,18,53,71,19,5,3,12,21,53
76876,1992-93,00,1610612766,CHH,32.0,24,0,127,14,40,0.35,0,2,0.0,12,16,0.75,14,33,47,5,1,2,8,16,40
76876,1992-93,00,0,TOT,32.0,39,0,329,34,89,0.382,0,2,0.0,25,31,0.806,32,86,118,24,6,5,20,37,93
77019,1982-83,00,1610612741,CHI,23.0,82,42,2196,313,698,0.448,13,41,0.317,209,264,0.792,159,207,366,175,66,65,127,248,848
77019,1983-84,00,1610612741,CHI,24.0,78,6,1577,193,432,0.447,1,22,0.045,113,156,0.724,87,119,206,116,49,29,76,161,500
77019,1984-85,00,1610612741,CHI,25.0,68,5,942,119,270,0.441,10,37,0.27,60,90,0.667,55,92,147,73,21,13,49,91,308
77019,1985-86,00,1610612760,SEA,26.0,12,0,94,9,27,0.333,1,4,0.25,3,5,0.6,3,9,12,6,2,1,4,11,22
77019,1985-86,00,1610612759,SAN,26.0,11,0,128,18,40,0.45,0,2,0.0,11,16,0.688,5,19,24,12,2,3,5,21,47
77019,1985-86,00,1610612751,NJN,26.0,2,0,29,3,16,0.188,0,2,0.0,0,0,0.0,3,5,8,1,1,4,2,6,6
77019,1985-86,00,1610612741,CHI,26.0,5,0,81,9,23,0.391,0,1,0.0,5,6,0.833,3,4,7,5,4,3,2,11,23
77019,1985-86,00,0,TOT,26.0,30,0,332,39,106,0.368,1,9,0.111,19,27,0.704,14,37,51,24,9,11,13,49,98
77019,1986-87,00,1610612744,GOS,27.0,73,28,1497,214,412,0.519,3,17,0.176,200,240,0.833,72,165,237,96,40,21,76,145,631
77019,1987-88,00,1610612744,GOS,28.0,68,67,2188,381,725,0.526,19,39,0.487,273,322,0.848,94,199,293,188,70,31,111,188,1054
77019,1988-89,00,1610612744,GOS,29.0,81,1,1887,301,633,0.476,66,168,0.393,188,229,0.821,111,265,376,160,39,42,76,172,856
77019,1989-90,00,1610612744,GOS,30.0,82,22,1993,304,632,0.481,67,193,0.347,234,285,0.821,120,302,422,129,47,53,93,184,909
77019,1990-91,00,1610612744,GOS,31.0,82,9,2024,259,559,0.463,73,220,0.332,185,226,0.819,109,245,354,113,52,37,65,198,776
77019,1991-92,00,1610612744,GOS,32.0,25,6,535,87,211,0.412,33,95,0.347,48,59,0.814,30,55,85,22,15,13,15,75,255
77019,1992-93,00,1610612758,SAC,33.0,69,4,1425,199,483,0.412,43,133,0.323,130,151,0.861,66,127,193,119,51,29,63,141,571
77019,1993-94,00,1610612739,CLE,34.0,36,11,547,71,163,0.436,22,50,0.44,31,42,0.738,25,57,82,36,25,14,21,53,195
77019,1994-95,00,1610612744,GOS,35.0,5,2,46,3,12,0.25,1,6,0.167,3,4,0.75,4,3,7,3,1,1,1,7,10
77047,1984-85,00,1610612756,PHX,23.0,74,59,1761,257,576,0.446,14,45,0.311,96,118,0.814,30,102,132,198,59,6,123,141,624
77047,1985-86,00,1610612756,PHX,24.0,4,0,65,4,20,0.2,0,2,0.0,4,6,0.667,1,2,3,7,2,0,4,7,12
77047,1985-86,00,1610612741,CHI,24.0,24,0,447,73,155,0.471,1,10,0.1,24,38,0.632,10,20,30,48,23,0,23,40,171
77047,1985-86,00,0,TOT,24.0,28,0,512,77,175,0.44,1,12,0.083,28,44,0.636,11,22,33,55,25,0,27,47,183
77047,1986-87,00,1610612757,POR,25.0,58,1,479,70,171,0.409,7,23,0.304,44,55,0.8,9,29,38,73,16,2,41,51,191
77047,1987-88,00,1610612757,POR,26.0,82,2,1279,163,353,0.462,3,15,0.2,107,129,0.829,50,99,149,211,41,10,86,154,436
77047,1988-89,00,1610612766,CHH,27.0,67,60,1696,215,504,0.427,3,14,0.214,120,143,0.839,30,75,105,424,66,12,119,165,553
77047,1989-90,00,1610612766,CHH,28.0,16,0,109,14,26,0.538,0,0,0.0,1,2,0.5,1,1,2,16,1,0,13,19,29
77438,1980-81,00,1610612756,PHX,24.0,82,,1469,272,532,0.511,12,51,0.235,107,119,0.899,44,88,132,160,76,5,95,120,663
77438,1981-82,00,1610612756,PHX,25.0,82,72.0,2845,486,945,0.514,39,100,0.39,152,169,0.899,78,183,261,384,143,9,125,185,1163
77438,1982-83,00,1610612756,PHX,26.0,82,9.0,1836,328,634,0.517,23,76,0.303,129,148,0.872,41,124,165,278,64,8,90,130,808
77438,1983-84,00,1610612756,PHX,27.0,82,45.0,2402,357,713,0.501,23,70,0.329,95,114,0.833,49,137,186,353,123,6,116,181,832
77438,1984-85,00,1610612756,PHX,28.0,65,52.0,2018,282,582,0.485,23,85,0.271,127,140,0.907,33,146,179,380,85,3,111,128,714
77438,1985-86,00,1610612741,CHI,29.0,82,79.0,2426,286,592,0.483,58,140,0.414,73,90,0.811,41,137,178,446,81,11,117,201,703
77438,1986-87,00,1610612754,IND,30.0,76,0.0,1250,164,341,0.481,14,46,0.304,34,41,0.829,25,88,113,197,59,7,58,136,376
77547,1978-79,00,1610612758,KCK,24.0,78,,1242,240,477,0.503,,,,129,162,0.796,20,65,85,253,58,3,124,121,609
77547,1979-80,00,1610612758,KCK,25.0,76,,1333,206,459,0.449,1.0,10.0,0.1,107,133,0.805,20,66,86,248,58,5,89,87,520
77547,1980-81,00,1610612762,UTH,26.0,35,,1032,124,233,0.532,1.0,2.0,0.5,44,48,0.917,12,62,74,157,38,4,70,107,293
77547,1980-81,00,1610612743,DEN,26.0,49,,1134,203,412,0.493,1.0,10.0,0.1,118,140,0.843,24,86,110,203,61,7,88,124,525
77547,1980-81,00,0,TOT,26.0,84,,2166,327,645,0.507,2.0,12.0,0.167,162,188,0.862,36,148,184,360,99,11,158,231,818
77547,1981-82,00,1610612743,DEN,27.0,81,27.0,1963,369,699,0.528,0.0,17.0,0.0,137,170,0.806,29,113,142,338,69,16,115,186,875
77547,1982-83,00,1610612743,DEN,28.0,68,38.0,1559,266,546,0.487,0.0,7.0,0.0,136,167,0.814,21,100,121,288,39,5,101,142,668
77547,1983-84,00,1610612746,SDC,29.0,80,0.0,843,136,305,0.446,0.0,2.0,0.0,39,46,0.848,7,47,54,161,27,0,48,84,311
77547,1985-86,00,1610612741,CHI,31.0,9,0.0,83,10,23,0.435,0.0,0.0,,2,2,1.0,1,4,5,13,3,0,2,9,22
77757,1980-81,00,1610612743,DEN,23.0,4,,21,2,6,0.333,0,0,,0,0,,3,2,5,0,0,2,2,3,4
77757,1981-82,00,1610612745,HOU,24.0,22,0.0,124,13,36,0.361,0,0,,8,14,0.571,7,17,24,3,2,10,6,28,34
77757,1982-83,00,1610612741,CHI,25.0,16,0.0,171,31,58,0.534,0,0,0.0,12,22,0.545,18,29,47,5,5,13,13,30,74
77757,1983-84,00,1610612741,CHI,26.0,64,0.0,870,110,218,0.505,0,0,0.0,39,66,0.591,75,158,233,33,15,76,83,139,259
77757,1984-85,00,1610612741,CHI,27.0,63,0.0,993,89,192,0.464,0,1,0.0,34,50,0.68,79,157,236,31,11,127,58,166,212
77757,1985-86,00,1610612741,CHI,28.0,52,47.0,1276,167,323,0.517,0,1,0.0,53,91,0.582,112,194,306,37,28,134,86,206,387
77757,1986-87,00,1610612752,NYK,29.0,44,9.0,776,71,174,0.408,0,1,0.0,31,57,0.544,51,128,179,19,22,71,48,95,173
77757,1987-88,00,1610612758,SAC,30.0,54,13.0,946,119,250,0.476,0,0,0.0,59,87,0.678,82,222,304,33,12,110,62,143,297
77757,1989-90,00,1610612753,ORL,32.0,3,0.0,36,1,3,0.333,0,0,0.0,2,5,0.4,4,11,15,0,2,3,3,6,4
77757,1989-90,00,1610612747,LAL,32.0,3,0.0,9,2,3,0.667,0,0,0.0,1,2,0.5,0,1,1,1,0,0,1,3,5
77757,1989-90,00,0,TOT,32.0,6,0.0,45,3,6,0.5,0,0,0.0,3,7,0.429,4,12,16,1,2,3,4,9,9
77757,1990-91,00,1610612754,IND,33.0,4,0.0,19,3,6,0.5,0,0,0.0,0,0,0.0,0,3,3,0,0,0,0,1,6
1091,1985-86,00,1610612741,CHI,23.0,38,5,408,46,122,0.377,0,2,0.0,16,29,0.552,46,64,110,19,6,23,29,95,108
1091,1986-87,00,1610612747,LAL,24.0,35,3,233,30,60,0.5,0,0,0.0,16,25,0.64,13,24,37,5,4,13,19,70,76
1091,1987-88,00,1610612747,LAL,25.0,48,2,421,44,103,0.427,0,0,0.0,44,66,0.667,27,58,85,8,7,42,30,105,132
1091,1988-89,00,1610612759,SAN,26.0,43,18,623,72,153,0.471,0,0,0.0,49,76,0.645,42,87,129,12,13,58,48,102,193
1091,1989-90,00,1610612744,GOS,27.0,13,3,107,10,24,0.417,0,0,0.0,1,6,0.167,11,23,34,1,4,11,9,18,21
1091,1990-91,00,1610612744,GOS,28.0,5,0,25,6,11,0.545,0,0,0.0,2,4,0.5,3,4,7,1,2,0,2,9,14
1091,1990-91,00,1610612746,LAC,28.0,10,0,70,3,16,0.188,0,0,0.0,4,8,0.5,4,15,19,3,1,3,1,18,10
1091,1990-91,00,0,TOT,28.0,15,0,95,9,27,0.333,0,0,0.0,6,12,0.5,7,19,26,4,3,3,3,27,24
1091,1991-92,00,1610612744,GOS,29.0,2,0,3,0,0,0.0,0,0,0.0,0,0,0.0,0,1,1,0,0,0,0,0,0
78615,1981-82,00,1610612741,CHI,22.0,75,12,1188,202,394,0.513,0,3,0.0,144,206,0.699,82,145,227,81,23,24,107,152,548
78615,1982-83,00,1610612741,CHI,23.0,57,38,1627,361,622,0.58,0,3,0.0,217,340,0.638,122,176,298,97,38,44,157,177,939
78615,1983-84,00,1610612741,CHI,24.0,75,74,2544,570,1086,0.525,1,2,0.5,303,424,0.715,130,239,369,136,71,60,188,253,1444
78615,1984-85,00,1610612741,CHI,25.0,77,76,2816,679,1225,0.554,0,5,0.0,409,521,0.785,158,277,435,135,58,38,178,185,1767
78615,1985-86,00,1610612741,CHI,26.0,70,59,2248,540,1090,0.495,4,23,0.174,364,462,0.788,150,200,350,213,49,47,174,186,1448
78615,1986-87,00,1610612751,NJN,27.0,75,53,2638,556,1067,0.521,1,8,0.125,438,564,0.777,118,249,367,261,54,86,213,243,1551
78615,1987-88,00,1610612751,NJN,28.0,19,12,622,110,247,0.445,0,2,0.0,92,130,0.708,31,60,91,71,13,20,48,73,312
78615,1988-89,00,1610612747,LAL,29.0,74,0,1491,231,494,0.468,0,1,0.0,253,343,0.738,81,189,270,58,30,65,103,130,715
78615,1989-90,00,1610612747,LAL,30.0,62,2,1421,306,550,0.556,0,5,0.0,176,240,0.733,49,136,185,96,39,46,73,160,788
78615,1990-91,00,1610612743,DEN,31.0,53,50,1823,490,983,0.498,0,4,0.0,350,439,0.797,141,220,361,119,69,23,152,145,1330
78615,1991-92,00,1610612765,DET,32.0,82,61,2113,452,907,0.498,1,9,0.111,241,353,0.683,109,151,260,88,41,33,133,154,1146
78615,1992-93,00,1610612765,DET,33.0,50,47,1477,271,566,0.479,0,9,0.0,113,168,0.673,84,92,176,112,26,25,73,114,655
78615,1992-93,00,1610612749,MIL,33.0,8,0,78,18,33,0.545,0,0,0.0,7,9,0.778,3,6,9,3,1,2,6,8,43
78615,1992-93,00,0,TOT,33.0,58,47,1555,289,599,0.482,0,9,0.0,120,177,0.678,87,98,185,115,27,27,79,122,698
78615,1993-94,00,1610612755,PHL,34.0,74,1,1955,364,773,0.471,1,14,0.071,208,302,0.689,103,195,298,139,41,56,142,186,937
76093,1981-82,00,1610612759,SAN,23.0,80,4,1700,311,652,0.477,0,8,0.0,145,212,0.684,157,254,411,147,55,17,106,199,767
76093,1982-83,00,1610612759,SAN,24.0,81,81,2722,505,919,0.55,0,5,0.0,196,278,0.705,222,390,612,279,78,21,171,229,1206
76093,1983-84,00,1610612759,SAN,25.0,80,66,2600,424,747,0.568,1,6,0.167,200,270,0.741,204,378,582,254,105,23,166,256,1049
76093,1984-85,00,1610612759,SAN,26.0,82,41,2091,289,493,0.586,1,3,0.333,199,257,0.774,133,312,445,234,65,13,140,220,778
76093,1985-86,00,1610612741,CHI,27.0,82,33,2139,356,688,0.517,0,19,0.0,183,255,0.718,178,182,360,251,81,10,139,212,895
76093,1986-87,00,1610612741,CHI,28.0,63,39,1822,249,462,0.539,0,5,0.0,112,146,0.767,115,193,308,170,52,17,113,173,610
76411,1985-86,00,1610612752,NYK,24.0,45,1,469,75,184,0.408,3,15,0.2,12,20,0.6,6,40,46,82,20,3,49,65,165
76411,1986-87,00,1610612741,CHI,25.0,5,0,27,2,11,0.182,0,1,0.0,0,0,0.0,1,4,5,4,2,0,1,1,4
77873,1977-78,00,1610612765,DET,23.0,52,,626,95,225,0.422,,,,42,60,0.7,50,95,145,20,10,22,40,69,232
77873,1978-79,00,1610612765,DET,24.0,76,,1337,198,464,0.427,,,,111,142,0.782,99,237,336,57,38,98,65,198,507
77873,1979-80,00,1610612762,UTH,25.0,82,,2349,296,566,0.523,0.0,2.0,0.0,139,167,0.832,124,436,560,131,45,162,103,283,731
77873,1980-81,00,1610612762,UTH,26.0,82,,2808,324,614,0.528,3.0,6.0,0.5,126,162,0.778,160,469,629,161,67,174,122,342,777
77873,1981-82,00,1610612762,UTH,27.0,82,56.0,1698,220,428,0.514,3.0,10.0,0.3,97,120,0.808,117,294,411,94,51,65,69,235,540
77873,1982-83,00,1610612762,UTH,28.0,75,50.0,2331,329,697,0.472,1.0,5.0,0.2,166,221,0.751,155,366,521,168,64,116,100,264,825
77873,1983-84,00,1610612739,CLE,29.0,51,4.0,858,75,171,0.439,1.0,5.0,0.2,34,43,0.791,57,125,182,49,20,33,28,114,185
77873,1984-85,00,1610612739,CLE,30.0,79,6.0,1656,210,457,0.46,3.0,17.0,0.176,109,137,0.796,148,325,473,79,47,58,70,220,532
77873,1985-86,00,1610612739,CLE,31.0,81,3.0,1496,166,348,0.477,2.0,10.0,0.2,72,100,0.72,121,252,373,78,33,32,68,187,406
77873,1986-87,00,1610612739,CLE,32.0,37,1.0,437,41,82,0.5,0.0,3.0,0.0,31,39,0.795,20,57,77,28,6,22,17,51,113
77873,1986-87,00,1610612741,CHI,32.0,21,1.0,167,21,40,0.525,0.0,1.0,0.0,9,11,0.818,10,14,24,7,3,12,4,26,51
77873,1986-87,00,0,TOT,32.0,58,2.0,604,62,122,0.508,0.0,4.0,0.0,40,50,0.8,30,71,101,35,9,34,21,77,164
9,1983-84,00,1610612755,PHL,22.0,45,0,464,62,148,0.419,1,8,0.125,23,28,0.821,17,23,40,41,13,2,33,65,148
9,1984-85,00,1610612755,PHL,23.0,82,0,1304,188,416,0.452,4,22,0.182,66,90,0.733,21,78,99,175,80,16,99,171,446
9,1985-86,00,1610612755,PHL,24.0,70,27,1754,310,684,0.453,1,24,0.042,75,90,0.833,21,100,121,193,93,5,102,157,696
9,1986-87,00,1610612755,PHL,25.0,28,8,668,108,261,0.414,7,16,0.438,42,53,0.792,18,39,57,82,32,4,47,76,265
9,1986-87,00,1610612741,CHI,25.0,40,0,778,131,273,0.48,0,16,0.0,53,66,0.803,8,43,51,177,42,9,42,88,315
9,1986-87,00,0,TOT,25.0,68,8,1446,239,534,0.448,7,32,0.219,95,119,0.798,26,82,108,259,74,13,89,164,580
9,1987-88,00,1610612741,CHI,26.0,45,0,701,132,263,0.502,2,20,0.1,32,41,0.78,12,43,55,107,27,3,44,71,298
9,1987-88,00,1610612760,SEA,26.0,26,0,354,84,162,0.519,1,7,0.143,25,30,0.833,11,22,33,53,33,5,19,29,194
9,1987-88,00,0,TOT,26.0,71,0,1055,216,425,0.508,3,27,0.111,57,71,0.803,23,65,88,160,60,8,63,100,492
9,1988-89,00,1610612760,SEA,27.0,63,0,1220,235,476,0.494,11,30,0.367,63,77,0.818,31,86,117,238,83,4,77,155,544
9,1989-90,00,1610612760,SEA,28.0,65,18,1481,303,599,0.506,8,32,0.25,130,157,0.828,43,72,115,216,65,8,77,164,744
9,1990-91,00,1610612760,SEA,29.0,80,57,2066,433,835,0.519,10,35,0.286,137,173,0.792,25,74,99,273,113,8,138,191,1013
9,1991-92,00,1610612747,LAL,30.0,82,82,3070,509,1041,0.489,20,62,0.323,202,243,0.831,43,210,253,593,168,16,182,231,1240
9,1992-93,00,1610612747,LAL,31.0,82,82,2893,522,1028,0.508,14,53,0.264,177,215,0.823,47,226,273,564,142,11,173,248,1235
9,1993-94,00,1610612747,LAL,32.0,81,20,2278,411,852,0.482,5,33,0.152,138,155,0.89,28,125,153,344,110,19,106,186,965
9,1994-95,00,1610612747,LAL,33.0,59,2,1384,217,437,0.497,36,95,0.379,88,111,0.793,21,103,124,248,54,12,70,139,558
9,1995-96,00,1610612747,LAL,34.0,82,8,1687,241,526,0.458,60,169,0.355,54,71,0.761,20,75,95,269,68,11,74,178,596
9,1996-97,00,1610612745,HOU,35.0,21,0,335,28,74,0.378,8,20,0.4,6,8,0.75,5,19,24,40,15,3,13,29,70
1479,1986-87,00,1610612741,CHI,23.0,62,3,818,106,201,0.527,0,0,0.0,46,72,0.639,71,143,214,24,20,7,59,129,258
1479,1987-88,00,1610612741,CHI,24.0,46,27,591,78,174,0.448,0,1,0.0,41,71,0.577,66,93,159,28,11,4,38,85,197
1479,1988-89,00,1610612762,UTH,25.0,66,16,1051,104,248,0.419,0,0,0.0,92,130,0.708,92,166,258,41,25,17,77,133,300
1479,1989-90,00,1610612762,UTH,26.0,82,0,1397,177,344,0.515,1,2,0.5,157,199,0.789,111,262,373,47,32,28,88,187,512
1479,1990-91,00,1610612762,UTH,27.0,82,2,1391,129,284,0.454,0,0,0.0,132,178,0.742,109,228,337,49,29,24,82,166,390
1479,1991-92,00,1610612762,UTH,28.0,82,1,1783,221,488,0.453,0,1,0.0,190,285,0.667,187,289,476,81,42,34,105,196,632
1479,1992-93,00,1610612762,UTH,29.0,82,21,1551,176,409,0.43,0,1,0.0,113,164,0.689,147,244,391,64,32,23,95,190,465
1479,1993-94,00,1610612750,MIN,30.0,82,40,1921,111,260,0.427,0,2,0.0,77,118,0.653,119,328,447,72,51,29,75,218,299
1479,1994-95,00,1610612750,MIN,31.0,27,0,213,10,40,0.25,0,1,0.0,15,27,0.556,9,36,45,10,7,0,16,35,35
1479,1995-96,00,1610612755,PHL,32.0,9,1,162,9,16,0.563,0,0,0.0,8,17,0.471,14,23,37,3,3,2,6,24,26
1479,1996-97,00,1610612756,PHX,33.0,6,1,82,5,12,0.417,0,0,0.0,6,10,0.6,9,16,25,5,1,1,2,9,16
891,1985-86,00,1610612741,CHI,22.0,77,30,1772,281,541,0.519,0,3,0.0,178,269,0.662,255,409,664,133,68,30,175,250,740
891,1986-87,00,1610612741,CHI,23.0,82,81,2980,468,1052,0.445,11,30,0.367,245,357,0.686,299,775,1074,296,85,36,299,315,1192
891,1987-88,00,1610612741,CHI,24.0,82,82,2816,375,776,0.483,3,12,0.25,261,359,0.727,326,740,1066,248,68,28,241,272,1014
891,1988-89,00,1610612752,NYK,25.0,82,82,2604,426,835,0.51,12,48,0.25,197,255,0.773,343,518,861,187,104,14,248,270,1061
891,1989-90,00,1610612752,NYK,26.0,61,61,2196,336,641,0.524,0,3,0.0,217,285,0.761,258,469,727,146,64,16,165,220,889
891,1990-91,00,1610612752,NYK,27.0,76,74,2739,307,595,0.516,0,2,0.0,239,305,0.784,305,615,920,204,62,17,215,288,853
891,1991-92,00,1610612752,NYK,28.0,82,82,2309,210,402,0.522,0,3,0.0,86,117,0.735,256,444,700,133,67,15,123,258,506
891,1992-93,00,1610612752,NYK,29.0,82,82,2230,219,431,0.508,0,1,0.0,127,176,0.722,288,420,708,126,85,15,124,289,565
891,1993-94,00,1610612752,NYK,30.0,82,82,2932,363,760,0.478,0,3,0.0,243,313,0.776,349,616,965,218,110,18,193,293,969
891,1994-95,00,1610612752,NYK,31.0,50,49,1567,192,393,0.489,3,12,0.25,119,150,0.793,155,290,445,126,60,7,103,179,506
891,1995-96,00,1610612752,NYK,32.0,53,51,1775,211,448,0.471,7,26,0.269,175,210,0.833,162,298,460,137,58,14,104,195,604
891,1996-97,00,1610612752,NYK,33.0,80,80,2870,339,694,0.488,5,19,0.263,181,224,0.808,246,535,781,221,111,21,171,305,864
891,1997-98,00,1610612752,NYK,34.0,79,79,2734,307,698,0.44,0,6,0.0,97,114,0.851,218,506,724,201,123,22,126,280,711
891,1998-99,00,1610612761,TOR,35.0,50,50,1633,140,327,0.428,1,5,0.2,67,83,0.807,96,278,374,168,46,21,96,182,348
891,1999-00,00,1610612761,TOR,36.0,80,80,2431,234,560,0.418,14,41,0.341,66,85,0.776,117,423,540,253,102,45,154,294,548
891,2000-01,00,1610612761,TOR,37.0,78,77,2767,305,786,0.388,11,49,0.224,127,152,0.836,142,599,741,264,76,48,139,258,748
891,2001-02,00,1610612741,CHI,38.0,57,36,1384,97,263,0.369,1,6,0.167,21,28,0.75,72,271,343,114,49,11,87,175,216
891,2002-03,00,1610612764,WAS,39.0,42,1,514,23,55,0.418,0,0,0.0,28,34,0.824,37,70,107,40,13,6,21,90,74
891,2003-04,00,1610612745,HOU,40.0,7,0,25,2,6,0.333,0,0,0.0,5,6,0.833,0,5,5,2,0,0,1,8,9
600009,1980-81,00,1610612751,NJN,23.0,15,,212,22,63,0.349,0,0,,12,16,0.75,7,11,18,32,13,3,18,15,56
600009,1981-82,00,1610612737,ATL,24.0,82,82.0,2610,366,730,0.501,1,15,0.067,124,148,0.838,53,171,224,424,87,13,145,240,857
600009,1982-83,00,1610612737,ATL,25.0,49,49.0,1548,264,512,0.516,3,15,0.2,84,113,0.743,39,102,141,238,70,1,126,162,615
600009,1982-83,00,1610612752,NYK,25.0,32,9.0,880,128,298,0.43,2,7,0.286,63,86,0.733,22,67,89,159,37,4,71,93,321
600009,1982-83,00,0,TOT,25.0,81,58.0,2428,392,810,0.484,5,22,0.227,147,199,0.739,61,169,230,397,107,5,197,255,936
600009,1983-84,00,1610612752,NYK,26.0,79,74.0,2436,350,738,0.474,10,39,0.256,108,131,0.824,48,141,189,539,100,8,210,230,818
600009,1984-85,00,1610612752,NYK,27.0,79,41.0,2292,326,662,0.492,7,31,0.226,122,141,0.865,38,131,169,557,81,9,150,200,781
600009,1985-86,00,1610612752,NYK,28.0,74,74.0,2344,345,723,0.477,5,20,0.25,101,127,0.795,50,120,170,472,85,14,154,182,796
600009,1986-87,00,1610612752,NYK,29.0,80,30.0,1951,263,590,0.446,11,42,0.262,71,89,0.798,29,86,115,432,67,6,140,160,608
600009,1987-88,00,1610612752,NYK,30.0,3,0.0,52,5,19,0.263,0,1,0.0,0,0,0.0,1,1,2,5,4,0,6,7,10
600009,1987-88,00,1610612741,CHI,30.0,55,25.0,992,112,274,0.409,2,12,0.167,24,33,0.727,14,56,70,162,37,3,52,72,250
600009,1987-88,00,0,TOT,30.0,58,25.0,1044,117,293,0.399,2,13,0.154,24,33,0.727,15,57,72,167,41,3,58,79,260
600009,1988-89,00,1610612748,MIA,31.0,80,79.0,2613,444,982,0.452,18,74,0.243,94,107,0.879,55,161,216,429,103,17,204,168,1000
600009,1989-90,00,1610612748,MIA,32.0,82,25.0,1756,210,510,0.412,8,40,0.2,59,77,0.766,37,101,138,298,49,4,99,140,487
600009,1990-91,00,1610612758,SAC,33.0,80,74.0,2375,371,756,0.491,31,78,0.397,58,83,0.699,45,141,186,362,83,16,126,189,831
600009,1991-92,00,1610612741,CHI,34.0,4,0.0,18,1,8,0.125,1,2,0.5,0,0,0.0,0,1,1,4,0,0,2,2,3
600009,1991-92,00,1610612747,LAL,34.0,42,0.0,471,57,143,0.399,2,13,0.154,8,13,0.615,3,24,27,79,12,5,31,55,124
600009,1991-92,00,0,TOT,34.0,46,0.0,489,58,151,0.384,3,15,0.2,8,13,0.615,3,25,28,83,12,5,33,57,127
78378,1981-82,00,1610612742,DAL,23.0,80,62,1996,282,639,0.441,0,4,0.0,97,138,0.703,143,158,301,189,75,3,116,182,661
78378,1982-83,00,1610612742,DAL,24.0,59,16,879,96,238,0.403,2,3,0.667,20,30,0.667,68,84,152,88,47,0,59,75,214
78378,1983-84,00,1610612742,DAL,25.0,47,1,536,54,150,0.36,1,9,0.111,28,34,0.824,42,51,93,59,26,0,29,40,137
78378,1984-85,00,1610612743,DEN,26.0,81,2,1491,181,388,0.466,1,6,0.167,51,65,0.785,88,128,216,158,96,7,70,152,414
78378,1985-86,00,1610612743,DEN,27.0,73,0,1324,165,379,0.435,0,9,0.0,39,53,0.736,64,137,201,165,70,6,80,150,369
78378,1986-87,00,1610612741,CHI,28.0,70,4,936,112,252,0.444,1,8,0.125,23,31,0.742,34,81,115,102,30,4,31,97,248
78378,1987-88,00,1610612741,CHI,29.0,17,0,98,8,30,0.267,0,0,0.0,1,2,0.5,8,2,10,9,8,0,10,5,17
78378,1988-89,00,1610612743,DEN,30.0,78,12,1746,151,353,0.428,2,7,0.286,33,56,0.589,109,178,287,144,90,8,60,209,337
78430,1983-84,00,1610612754,IND,23.0,78,8,1040,123,238,0.517,0,1,0.0,31,51,0.608,64,163,227,60,24,85,65,164,277
78430,1984-85,00,1610612754,IND,24.0,62,5,703,85,190,0.447,0,1,0.0,29,50,0.58,57,113,170,30,16,44,55,107,199
78430,1985-86,00,1610612745,HOU,25.0,43,0,156,13,39,0.333,0,1,0.0,1,6,0.167,15,13,28,8,4,10,11,30,27
78430,1986-87,00,1610612741,CHI,26.0,44,26,534,40,93,0.43,0,1,0.0,5,9,0.556,38,49,87,22,10,31,16,83,85
78430,1987-88,00,1610612741,CHI,27.0,22,0,114,9,29,0.31,0,1,0.0,0,2,0.0,9,19,28,1,2,15,6,26,18
76453,1978-79,00,1610612764,WAS,23.0,59,1,532,63,118,0.534,,,,49,63,0.778,52,95,147,49,10,14,53,67,175
76453,1979-80,00,1610612764,WAS,24.0,78,0,826,90,216,0.417,0.0,0.0,0.0,45,68,0.662,104,166,270,63,9,31,60,120,225
76453,1980-81,00,1610612759,SAN,25.0,82,0,1960,366,747,0.49,0.0,3.0,0.0,125,175,0.714,228,408,636,117,42,99,131,212,857
76453,1981-82,00,1610612759,SAN,26.0,82,21,2189,336,648,0.519,1.0,4.0,0.25,159,213,0.746,211,418,629,130,33,126,139,235,832
76453,1982-83,00,1610612741,CHI,27.0,82,71,2496,457,920,0.497,0.0,2.0,0.0,232,322,0.72,243,474,717,154,47,109,228,242,1146
76453,1983-84,00,1610612741,CHI,28.0,82,82,2674,385,824,0.467,3.0,9.0,0.333,231,275,0.84,169,406,575,202,58,120,175,227,1004
76453,1984-85,00,1610612741,CHI,29.0,82,50,2062,276,568,0.486,0.0,1.0,0.0,149,200,0.745,130,292,422,140,32,64,124,189,701
76453,1985-86,00,1610612741,CHI,30.0,67,4,1709,255,519,0.491,3.0,12.0,0.25,127,171,0.743,132,301,433,150,28,53,104,133,640
76453,1986-87,00,1610612741,CHI,31.0,82,39,2287,294,619,0.475,0.0,5.0,0.0,95,129,0.736,199,341,540,209,38,87,114,202,683
76453,1987-88,00,1610612741,CHI,32.0,80,32,2328,344,715,0.481,1.0,9.0,0.111,115,153,0.752,170,357,527,154,36,95,109,149,804
76453,1988-89,00,1610612741,CHI,33.0,81,7,1483,203,440,0.461,2.0,8.0,0.25,71,96,0.74,92,223,315,103,29,45,93,134,479
76453,1989-90,00,1610612753,ORL,34.0,6,3,79,11,29,0.379,0.0,0.0,0.0,0,2,0.0,7,11,18,2,2,0,8,7,22
76453,1990-91,00,1610612760,SEA,35.0,28,0,147,17,38,0.447,0.0,0.0,0.0,13,22,0.591,10,23,33,4,5,5,2,18,47
77880,1988-89,00,1610612764,WAS,25.0,10,0,107,8,25,0.32,0,0,0.0,5,9,0.556,3,11,14,22,4,0,11,9,21
77880,1988-89,00,1610612741,CHI,25.0,3,0,17,1,6,0.167,0,2,0.0,0,0,0.0,0,1,1,4,0,0,0,2,2
77880,1988-89,00,0,TOT,25.0,13,0,124,9,31,0.29,0,2,0.0,5,9,0.556,3,12,15,26,4,0,11,11,23
78110,1986-87,00,1610612741,CHI,24.0,80,17,1751,276,606,0.455,2,10,0.2,126,173,0.728,155,218,373,102,44,68,84,194,680
78110,1987-88,00,1610612741,CHI,25.0,82,76,2212,326,714,0.457,1,7,0.143,124,157,0.79,107,143,250,141,34,66,91,174,777
78110,1988-89,00,1610612741,CHI,26.0,80,25,1732,231,476,0.485,3,6,0.5,86,101,0.851,85,142,227,99,35,69,72,176,551
78110,1989-90,00,1610612760,SEA,27.0,45,0,587,84,198,0.424,0,3,0.0,49,61,0.803,31,39,70,32,11,19,34,63,217
78110,1989-90,00,1610612750,MIN,27.0,14,0,113,19,56,0.339,0,2,0.0,9,12,0.75,8,11,19,1,6,3,12,11,47
78110,1989-90,00,0,TOT,27.0,59,0,700,103,254,0.406,0,5,0.0,58,73,0.795,39,50,89,33,17,22,46,74,264
78110,1991-92,00,1610612765,DET,29.0,43,1,226,41,88,0.466,0,1,0.0,20,26,0.769,15,27,42,14,1,10,15,20,102
78110,1992-93,00,1610612750,MIN,30.0,54,4,533,49,130,0.377,0,1,0.0,37,39,0.949,27,56,83,46,6,11,27,40,135
78417,1985-86,00,1610612738,BOS,23.0,57,0,432,59,162,0.364,1,4,0.25,65,70,0.929,11,37,48,69,17,4,49,59,184
78417,1986-87,00,1610612738,BOS,24.0,46,5,374,60,136,0.441,0,0,0.0,51,55,0.927,5,22,27,59,13,1,33,33,171
78417,1987-88,00,1610612760,SEA,25.0,43,0,548,72,152,0.474,5,13,0.385,46,60,0.767,17,32,49,137,21,4,52,63,195
78417,1987-88,00,1610612741,CHI,25.0,29,27,953,138,309,0.447,3,8,0.375,99,107,0.925,18,85,103,244,34,12,84,82,378
78417,1987-88,00,0,TOT,25.0,72,27,1501,210,461,0.456,8,21,0.381,145,167,0.868,35,117,152,381,55,16,136,145,573
78417,1988-89,00,1610612741,CHI,26.0,70,56,1703,274,566,0.484,2,17,0.118,106,129,0.822,34,156,190,335,53,10,142,124,656
78417,1989-90,00,1610612753,ORL,27.0,63,45,1657,258,564,0.457,1,14,0.071,188,214,0.879,37,157,194,354,65,20,132,108,705
78417,1990-91,00,1610612753,ORL,28.0,49,17,975,152,353,0.431,3,19,0.158,99,120,0.825,17,90,107,197,30,5,91,74,406
78417,1991-92,00,1610612753,ORL,29.0,39,18,885,150,349,0.43,1,13,0.077,110,130,0.846,19,82,101,148,35,4,72,55,411
116,1988-89,00,1610612741,CHI,24.0,2,0,2,0,0,0.0,0,0,0.0,0,0,0.0,0,0,0,0,0,0,0,0,0
116,1990-91,00,1610612745,HOU,26.0,82,13,1421,148,349,0.424,28,90,0.311,108,133,0.812,107,139,246,94,58,16,89,236,432
116,1992-93,00,1610612759,SAN,28.0,64,2,598,52,117,0.444,5,21,0.238,46,55,0.836,38,59,97,34,13,12,29,93,155
116,1993-94,00,1610612765,DET,29.0,78,3,1182,119,259,0.459,22,49,0.449,62,82,0.756,104,135,239,51,39,19,35,201,322
116,1994-95,00,1610612744,GOS,30.0,78,13,1336,153,326,0.469,31,91,0.341,91,117,0.778,83,158,241,65,28,13,53,217,428
116,1995-96,00,1610612744,GOS,31.0,21,0,96,7,14,0.5,1,3,0.333,7,8,0.875,7,9,16,5,2,1,3,23,22
116,1995-96,00,1610612756,PHX,31.0,4,0,34,1,6,0.167,0,0,0.0,2,2,1.0,2,3,5,2,1,0,2,9,4
116,1995-96,00,1610612742,DAL,31.0,37,0,642,67,154,0.435,19,59,0.322,29,40,0.725,42,91,133,27,16,9,19,118,182
116,1995-96,00,0,TOT,31.0,62,0,772,75,174,0.431,20,62,0.323,38,50,0.76,51,103,154,34,19,10,24,150,208
116,1996-97,00,1610612749,MIL,32.0,46,0,235,20,38,0.526,5,15,0.333,12,18,0.667,5,22,27,13,7,6,6,36,57
76518,1981-82,00,1610612764,WAS,23.0,54,10,575,88,184,0.478,0,2,0.0,30,37,0.811,54,79,133,31,10,13,43,89,206
76518,1982-83,00,1610612764,WAS,24.0,74,10,1161,251,534,0.47,2,10,0.2,56,89,0.629,83,130,213,73,32,22,91,122,560
76518,1983-84,00,1610612764,WAS,25.0,46,0,467,103,218,0.472,1,9,0.111,24,39,0.615,34,69,103,30,14,10,36,58,231
76518,1984-85,00,1610612764,WAS,26.0,4,0,28,2,10,0.2,0,0,0.0,3,4,0.75,2,2,4,1,1,0,2,3,7
76518,1984-85,00,1610612749,MIL,26.0,57,2,746,151,346,0.436,1,10,0.1,48,58,0.828,57,92,149,50,21,5,52,110,351
76518,1984-85,00,0,TOT,26.0,61,2,774,153,356,0.43,1,10,0.1,51,62,0.823,59,94,153,51,22,5,54,113,358
76518,1985-86,00,1610612749,MIL,27.0,57,7,873,188,397,0.474,3,24,0.125,61,75,0.813,60,110,170,55,26,7,50,113,440
76518,1987-88,00,1610612749,MIL,29.0,5,0,39,6,18,0.333,0,2,0.0,0,0,0.0,1,2,3,3,2,1,5,4,12
76518,1987-88,00,1610612759,SAN,29.0,16,0,187,42,97,0.433,1,15,0.067,7,10,0.7,15,23,38,17,0,3,13,25,92
76518,1987-88,00,0,TOT,29.0,21,0,226,48,115,0.417,1,17,0.059,7,10,0.7,16,25,41,20,2,4,18,29,104
76518,1988-89,00,1610612741,CHI,30.0,49,3,545,81,190,0.426,4,15,0.267,19,26,0.731,47,67,114,31,11,5,22,58,185
76518,1989-90,00,1610612741,CHI,31.0,53,0,429,58,158,0.367,7,25,0.28,7,8,0.875,25,56,81,18,10,8,20,52,130
77374,1989-90,00,1610612741,CHI,24.0,4,0,28,2,8,0.25,0,0,0.0,0,0,0.0,0,0,0,1,0,0,2,8,4
77374,1990-91,00,1610612759,SAN,25.0,7,0,99,14,29,0.483,0,1,0.0,6,9,0.667,1,6,7,7,2,1,8,9,34
1874,1989-90,00,1610612741,CHI,24.0,31,0,182,13,40,0.325,0,0,0.0,2,4,0.5,17,22,39,9,4,4,15,27,28
1874,1990-91,00,1610612766,CHH,25.0,3,0,43,6,14,0.429,0,0,0.0,1,2,0.5,3,6,9,1,1,1,1,6,13
1874,1991-92,00,1610612737,ATL,26.0,12,0,117,20,45,0.444,0,0,0.0,7,9,0.778,9,17,26,9,5,3,5,15,47
1874,1992-93,00,1610612737,ATL,27.0,9,0,120,10,25,0.4,0,0,0.0,4,8,0.5,12,17,29,6,8,1,11,16,24
77054,1987-88,00,1610612751,NJN,23.0,61,19,1365,222,549,0.404,12,45,0.267,131,177,0.74,63,80,143,118,57,25,119,145,587
77054,1988-89,00,1610612751,NJN,24.0,62,36,1551,299,714,0.419,4,27,0.148,186,219,0.849,91,111,202,103,70,30,102,150,788
77054,1989-90,00,1610612751,NJN,25.0,79,64,2551,474,1093,0.434,32,101,0.317,271,342,0.792,113,166,279,151,100,51,168,183,1251
77054,1990-91,00,1610612741,CHI,26.0,61,0,728,104,244,0.426,1,5,0.2,55,83,0.663,49,60,109,65,25,14,59,79,264
77054,1991-92,00,1610612741,CHI,27.0,2,0,10,1,2,0.5,0,0,0.0,0,0,0.0,0,0,0,0,1,0,0,2,2
77054,1991-92,00,1610612758,SAC,27.0,69,0,1304,275,591,0.465,12,47,0.255,179,253,0.708,105,101,206,102,66,39,100,113,741
77054,1991-92,00,0,TOT,27.0,71,0,1314,276,593,0.465,12,47,0.255,179,253,0.708,105,101,206,102,67,39,100,115,743
76942,1983-84,00,1610612762,UTH,23.0,55,0,419,65,145,0.448,0,8,0.0,18,28,0.643,13,35,48,44,15,4,35,62,148
76942,1984-85,00,1610612762,UTH,24.0,54,4,646,110,225,0.489,1,7,0.143,40,72,0.556,20,50,70,75,25,1,49,88,261
76942,1985-86,00,1610612762,UTH,25.0,82,82,2032,299,628,0.476,17,50,0.34,95,132,0.72,82,162,244,193,74,9,126,205,710
76942,1986-87,00,1610612762,UTH,26.0,72,72,1453,272,601,0.453,16,45,0.356,136,179,0.76,84,119,203,102,44,6,77,146,696
76942,1987-88,00,1610612762,UTH,27.0,81,51,1796,316,611,0.517,32,97,0.33,113,152,0.743,64,123,187,175,65,5,91,193,777
76942,1988-89,00,1610612762,UTH,28.0,46,9,964,140,300,0.467,19,54,0.352,42,75,0.56,29,99,128,50,37,6,43,105,341
76942,1989-90,00,1610612762,UTH,29.0,81,81,2174,265,568,0.467,54,154,0.351,33,64,0.516,66,163,229,149,52,11,79,194,617
76942,1990-91,00,1610612758,SAC,30.0,36,24,811,96,256,0.375,19,69,0.275,18,36,0.5,33,63,96,90,20,5,34,72,229
76942,1991-92,00,1610612758,SAC,31.0,2,2,40,4,9,0.444,0,2,0.0,0,0,0.0,2,2,4,1,1,0,0,6,8
76942,1991-92,00,1610612741,CHI,31.0,66,0,769,75,169,0.444,7,25,0.28,8,22,0.364,15,58,73,68,26,3,28,128,165
76942,1991-92,00,0,TOT,31.0,68,2,809,79,178,0.444,7,27,0.259,8,22,0.364,17,60,77,69,27,3,28,134,173
77034,1982-83,00,1610612746,SDC,23.0,76,48,2022,318,704,0.452,20,90,0.222,94,130,0.723,53,69,122,275,82,4,161,192,750
77034,1983-84,00,1610612746,SDC,24.0,76,28,1571,258,573,0.45,10,46,0.217,66,88,0.75,22,64,86,116,58,1,85,166,592
77034,1984-85,00,1610612749,MIL,25.0,82,63,2496,359,733,0.49,47,135,0.348,106,130,0.815,74,112,186,349,96,1,135,262,871
77034,1985-86,00,1610612749,MIL,26.0,66,66,1739,284,568,0.5,73,162,0.451,75,86,0.872,39,78,117,229,74,2,89,157,716
77034,1986-87,00,1610612749,MIL,27.0,78,43,2147,315,682,0.462,85,228,0.373,131,147,0.891,48,92,140,240,76,7,124,189,846
77034,1987-88,00,1610612749,MIL,28.0,43,0,983,155,345,0.449,55,118,0.466,32,39,0.821,12,34,46,109,30,0,49,80,397
77034,1987-88,00,1610612756,PHX,28.0,23,0,462,87,178,0.489,31,57,0.544,27,32,0.844,7,25,32,44,16,2,28,38,232
77034,1987-88,00,0,TOT,28.0,66,0,1445,242,523,0.463,86,175,0.491,59,71,0.831,19,59,78,153,46,2,77,118,629
77034,1988-89,00,1610612756,PHX,29.0,10,0,92,16,36,0.444,4,12,0.333,3,4,0.75,2,3,5,8,2,0,5,8,39
77034,1988-89,00,1610612741,CHI,29.0,49,6,1112,187,394,0.475,71,168,0.423,45,53,0.849,21,63,84,138,41,4,52,82,490
77034,1988-89,00,0,TOT,29.0,59,6,1204,203,430,0.472,75,180,0.417,48,57,0.842,23,66,89,146,43,4,57,90,529
77034,1989-90,00,1610612741,CHI,30.0,63,0,1055,145,331,0.438,87,181,0.481,30,33,0.909,11,42,53,110,30,2,30,87,407
77034,1990-91,00,1610612741,CHI,31.0,73,0,843,146,344,0.424,44,115,0.383,26,27,0.963,10,32,42,97,34,2,35,74,362
77034,1991-92,00,1610612741,CHI,32.0,56,2,555,93,242,0.384,36,96,0.375,16,17,0.941,7,17,24,54,14,1,22,33,238
77377,1982-83,00,1610612765,DET,22.0,62,5,879,131,270,0.485,0,1,0.0,84,147,0.571,104,128,232,52,23,36,73,125,346
77377,1983-84,00,1610612765,DET,23.0,80,24,1746,229,436,0.525,0,3,0.0,125,186,0.672,234,311,545,109,44,78,77,281,583
77377,1984-85,00,1610612737,ATL,24.0,74,53,2017,291,552,0.527,0,2,0.0,145,222,0.653,230,336,566,104,70,69,133,231,727
77377,1985-86,00,1610612737,ATL,25.0,81,35,1945,294,551,0.534,0,1,0.0,164,242,0.678,193,341,534,72,76,39,113,260,752
77377,1986-87,00,1610612737,ATL,26.0,82,10,1848,251,496,0.506,0,3,0.0,155,212,0.731,219,314,533,40,48,68,72,261,657
77377,1987-88,00,1610612737,ATL,27.0,82,32,2135,314,564,0.557,1,2,0.5,190,246,0.772,228,276,504,71,52,84,94,287,819
77377,1988-89,00,1610612737,ATL,28.0,80,52,2184,300,568,0.528,1,5,0.2,133,191,0.696,194,304,498,75,97,70,105,270,734
77377,1989-90,00,1610612737,ATL,29.0,75,5,1706,216,424,0.509,1,5,0.2,83,122,0.68,113,206,319,80,55,41,49,216,516
77377,1990-91,00,1610612741,CHI,30.0,78,0,1013,127,282,0.45,1,4,0.25,59,91,0.648,99,126,225,56,29,43,50,143,314
77377,1991-92,00,1610612741,CHI,31.0,79,0,1020,125,251,0.498,1,6,0.167,60,96,0.625,109,118,227,66,27,45,42,134,311
77377,1994-95,00,1610612743,DEN,34.0,57,0,469,55,130,0.423,0,1,0.0,19,45,0.422,49,75,124,27,13,20,21,91,129
77707,1982-83,00,1610612745,HOU,24.0,6,0,64,11,15,0.733,0,0,0.0,1,4,0.25,6,11,17,0,1,12,7,14,23
77707,1984-85,00,1610612747,LAL,26.0,11,0,59,5,17,0.294,0,0,0.0,2,8,0.25,5,15,20,3,0,15,10,20,12
77707,1985-86,00,1610612747,LAL,27.0,4,0,25,3,11,0.273,0,0,0.0,4,6,0.667,3,4,7,2,2,2,5,6,10
77707,1985-86,00,1610612765,DET,27.0,25,0,101,12,32,0.375,0,0,0.0,15,20,0.75,10,15,25,5,2,17,7,29,39
77707,1985-86,00,0,TOT,27.0,29,0,126,15,43,0.349,0,0,0.0,19,26,0.731,13,19,32,7,4,19,12,35,49
77707,1986-87,00,1610612765,DET,28.0,41,0,267,31,63,0.492,0,0,0.0,14,24,0.583,36,47,83,4,7,30,21,73,76
77707,1987-88,00,1610612765,DET,29.0,17,0,63,7,21,0.333,0,0,0.0,3,6,0.5,4,14,18,0,1,5,2,12,17
77707,1988-89,00,1610612745,HOU,30.0,43,0,228,27,62,0.435,0,0,0.0,11,16,0.688,17,47,64,3,5,29,22,51,65
77707,1989-90,00,1610612745,HOU,31.0,3,0,9,2,2,1.0,0,0,0.0,0,0,0.0,0,3,3,1,0,1,2,3,4
77707,1991-92,00,1610612741,CHI,33.0,4,0,9,1,3,0.333,0,0,0.0,0,0,0.0,0,1,1,1,0,0,3,2,2
77707,1993-94,00,1610612759,SAN,35.0,1,0,1,0,0,0.0,0,0,0.0,3,6,0.5,1,0,1,0,0,0,1,1,3
76184,1992-93,00,1610612741,CHI,27.0,2,0,13,3,7,0.429,0,0,0.0,0,0,0.0,2,1,3,1,2,0,1,1,6
351,1989-90,00,1610612741,CHI,23.0,82,2,1777,267,530,0.504,0,1,0.0,194,267,0.727,169,215,384,87,38,58,119,215,728
351,1990-91,00,1610612741,CHI,24.0,76,6,1198,156,334,0.467,0,2,0.0,107,152,0.704,72,136,208,65,24,42,91,134,419
351,1991-92,00,1610612741,CHI,25.0,79,12,1268,215,425,0.506,2,5,0.4,119,158,0.753,87,118,205,77,21,25,76,129,551
351,1992-93,00,1610612741,CHI,26.0,76,3,1059,160,340,0.471,2,6,0.333,86,122,0.705,105,102,207,71,26,20,70,128,408
351,1993-94,00,1610612741,CHI,27.0,31,15,537,68,171,0.398,0,2,0.0,36,53,0.679,50,82,132,39,18,12,43,64,172
351,1993-94,00,1610612750,MIN,27.0,18,15,516,78,170,0.459,0,0,0.0,57,83,0.687,40,69,109,19,13,30,40,57,213
351,1993-94,00,0,TOT,27.0,49,30,1053,146,341,0.428,0,2,0.0,93,136,0.684,90,151,241,58,31,42,83,121,385
351,1994-95,00,1610612750,MIN,28.0,50,10,792,99,212,0.467,0,1,0.0,68,102,0.667,54,111,165,26,24,20,64,126,266
351,1995-96,00,1610612748,MIA,29.0,15,0,156,17,36,0.472,0,0,0.0,4,8,0.5,9,14,23,2,7,2,18,39,38
351,1996-97,00,1610612738,BOS,30.0,5,0,33,5,7,0.714,0,0,0.0,2,3,0.667,1,8,9,1,0,1,1,3,12
351,1996-97,00,1610612742,DAL,30.0,6,0,70,6,15,0.4,0,0,0.0,0,4,0.0,10,8,18,0,2,0,5,11,12
351,1996-97,00,0,TOT,30.0,11,0,103,11,22,0.5,0,0,0.0,2,7,0.286,11,16,27,1,2,1,6,14,24
1622,1983-84,00,1610612745,HOU,22.0,79,36,2081,335,672,0.499,1,4,0.25,182,249,0.731,173,277,450,176,53,54,120,205,853
1622,1984-85,00,1610612745,HOU,23.0,82,82,3001,476,890,0.535,0,6,0.0,231,313,0.738,201,338,539,355,90,75,178,215,1183
1622,1985-86,00,1610612745,HOU,24.0,82,82,2610,338,629,0.537,0,3,0.0,171,222,0.77,159,361,520,292,50,58,130,197,847
1622,1986-87,00,1610612745,HOU,25.0,81,81,3136,432,783,0.552,0,9,0.0,306,393,0.779,190,388,578,434,88,53,208,172,1170
1622,1987-88,00,1610612745,HOU,26.0,81,80,2689,359,746,0.481,0,4,0.0,288,367,0.785,232,399,631,264,57,51,144,166,1006
1622,1988-89,00,1610612758,SAC,27.0,68,65,2435,340,729,0.466,5,22,0.227,169,234,0.722,143,371,514,293,57,36,168,121,854
1622,1989-90,00,1610612758,SAC,28.0,82,82,3238,537,1043,0.515,11,42,0.262,273,348,0.784,192,477,669,377,60,70,174,176,1358
1622,1990-91,00,1610612742,DAL,29.0,74,68,2561,336,679,0.495,13,39,0.333,159,198,0.803,153,407,560,259,70,51,129,203,844
1622,1991-92,00,1610612742,DAL,30.0,75,48,2106,271,622,0.436,25,85,0.294,110,153,0.719,149,319,468,219,48,30,115,180,677
1622,1992-93,00,1610612741,CHI,31.0,64,5,1019,92,204,0.451,2,5,0.4,36,52,0.692,53,105,158,81,12,15,53,99,222
77697,1982-83,00,1610612758,KCK,23.0,82,61,1643,147,247,0.595,0,0,0.0,70,114,0.614,170,315,485,62,68,12,51,247,364
77697,1983-84,00,1610612758,KCK,24.0,71,1,960,63,126,0.5,0,0,0.0,48,60,0.8,73,149,222,50,41,9,33,138,174
77697,1984-85,00,1610612758,KCK,25.0,22,0,225,26,44,0.591,0,0,0.0,10,19,0.526,15,29,44,18,3,1,12,26,62
77697,1986-87,00,1610612759,SAN,27.0,60,7,980,84,192,0.438,4,31,0.129,51,69,0.739,96,188,284,83,40,11,36,144,223
77697,1987-88,00,1610612759,SAN,28.0,68,1,837,50,109,0.459,1,2,0.5,41,63,0.651,82,140,222,49,29,5,27,94,142
77697,1988-89,00,1610612741,CHI,29.0,13,0,94,5,7,0.714,0,0,0.0,1,2,0.5,4,19,23,6,3,1,1,23,11
77697,1988-89,00,1610612756,PHX,29.0,30,0,164,8,29,0.276,0,2,0.0,3,7,0.429,18,37,55,8,4,0,6,22,19
77697,1988-89,00,0,TOT,29.0,43,0,258,13,36,0.361,0,2,0.0,4,9,0.444,22,56,78,14,7,1,7,45,30
77697,1989-90,00,1610612741,CHI,30.0,46,0,503,37,70,0.529,0,2,0.0,30,41,0.732,46,92,138,28,16,4,17,67,104
77697,1990-91,00,1610612756,PHX,31.0,55,0,573,45,97,0.464,5,16,0.313,28,38,0.737,44,107,151,36,24,4,19,46,123
77697,1991-92,00,1610612756,PHX,32.0,52,4,505,62,121,0.512,20,50,0.4,16,24,0.667,25,86,111,37,16,2,17,45,160
77697,1992-93,00,1610612744,GOS,33.0,30,4,229,16,46,0.348,7,22,0.318,7,10,0.7,8,40,48,13,9,1,5,35,46
77697,1992-93,00,1610612741,CHI,33.0,11,0,79,10,23,0.435,1,5,0.2,2,2,1.0,4,12,16,2,3,1,2,6,23
77697,1992-93,00,0,TOT,33.0,41,4,308,26,69,0.377,8,27,0.296,9,12,0.75,12,52,64,15,12,2,7,41,69
78375,1982-83,00,1610612752,NYK,23.0,78,59,1830,299,647,0.462,14,30,0.467,43,64,0.672,75,141,216,195,56,6,70,235,655
78375,1983-84,00,1610612752,NYK,24.0,63,21,1228,225,450,0.5,6,16,0.375,25,33,0.758,43,87,130,138,63,8,54,124,481
78375,1984-85,00,1610612752,NYK,25.0,77,46,1819,293,606,0.483,29,72,0.403,38,48,0.792,74,114,188,199,75,15,64,195,653
78375,1985-86,00,1610612752,NYK,26.0,77,23,1788,349,740,0.472,41,91,0.451,79,100,0.79,70,99,169,192,65,8,70,167,818
78375,1986-87,00,1610612752,NYK,27.0,70,15,1691,325,691,0.47,68,161,0.422,77,101,0.762,49,86,135,166,116,13,78,169,795
78375,1987-88,00,1610612752,NYK,28.0,71,4,1248,193,455,0.424,69,167,0.413,51,71,0.718,32,87,119,117,53,6,47,158,506
78375,1988-89,00,1610612752,NYK,29.0,81,24,1824,263,579,0.454,118,296,0.399,43,55,0.782,55,121,176,132,88,6,59,163,687
78375,1989-90,00,1610612752,NYK,30.0,81,2,1725,253,606,0.417,95,245,0.388,66,86,0.767,57,117,174,173,74,8,73,159,667
78375,1990-91,00,1610612752,NYK,31.0,65,13,1194,191,434,0.44,64,153,0.418,17,27,0.63,33,72,105,111,44,9,46,120,463
78375,1991-92,00,1610612759,SAN,32.0,24,0,415,60,129,0.465,19,48,0.396,16,20,0.8,8,29,37,27,21,3,14,39,155
78375,1992-93,00,1610612741,CHI,33.0,69,0,909,143,295,0.485,52,131,0.397,18,22,0.818,16,55,71,82,24,6,18,65,356
78437,1983-84,00,1610612752,NYK,23.0,82,0,1324,216,518,0.417,4,15,0.267,208,263,0.791,74,93,167,284,127,15,194,202,644
78437,1984-85,00,1610612752,NYK,24.0,82,66,2489,430,989,0.435,0,17,0.0,243,347,0.7,128,150,278,408,167,21,204,244,1103
78437,1985-86,00,1610612752,NYK,25.0,81,35,2023,324,753,0.43,0,10,0.0,190,277,0.686,100,120,220,337,146,36,192,216,838
78437,1986-87,00,1610612743,DEN,26.0,81,25,2020,358,742,0.482,0,4,0.0,272,365,0.745,157,170,327,282,120,37,187,229,988
78437,1987-88,00,1610612764,WAS,27.0,52,0,940,114,291,0.392,0,6,0.0,82,105,0.781,43,84,127,100,62,10,69,105,310
78437,1988-89,00,1610612764,WAS,28.0,79,78,2565,286,681,0.42,0,9,0.0,142,184,0.772,135,372,507,496,155,23,184,215,714
78437,1989-90,00,1610612764,WAS,29.0,81,81,2883,316,696,0.454,2,21,0.095,138,201,0.687,173,541,714,652,139,30,173,220,772
78437,1990-91,00,1610612764,WAS,30.0,71,65,2305,230,535,0.43,0,9,0.0,93,154,0.604,140,358,498,459,78,33,154,199,553
78437,1991-92,00,1610612765,DET,31.0,74,4,1541,161,381,0.423,0,10,0.0,65,105,0.619,85,153,238,205,63,18,79,134,387
78437,1992-93,00,1610612765,DET,32.0,9,2,144,3,19,0.158,0,1,0.0,2,6,0.333,4,15,19,9,10,0,13,12,8
78437,1992-93,00,1610612741,CHI,32.0,28,0,367,31,77,0.403,0,0,0.0,10,20,0.5,18,21,39,44,23,2,12,51,72
78437,1992-93,00,0,TOT,32.0,37,2,511,34,96,0.354,0,1,0.0,12,26,0.462,22,36,58,53,33,2,25,63,80
76362,1979-80,00,1610612752,NYK,22.0,82,82,3150,665,1215,0.547,0,0,0.0,451,566,0.797,194,532,726,165,48,101,222,279,1781
76362,1980-81,00,1610612752,NYK,23.0,82,81,2925,619,1118,0.554,0,1,0.0,408,518,0.788,161,452,613,111,48,83,200,259,1646
76362,1981-82,00,1610612752,NYK,24.0,72,50,2060,390,694,0.562,0,0,0.0,257,337,0.763,116,305,421,87,48,65,166,208,1037
76362,1982-83,00,1610612752,NYK,25.0,82,82,2468,455,804,0.566,0,0,0.0,380,511,0.744,185,405,590,136,41,127,204,315,1290
76362,1983-84,00,1610612752,NYK,26.0,77,77,2487,453,808,0.561,0,1,0.0,404,502,0.805,195,454,649,107,44,97,200,262,1310
76362,1985-86,00,1610612752,NYK,28.0,2,0,36,3,7,0.429,0,0,0.0,6,10,0.6,2,8,10,5,1,1,6,6,12
76362,1986-87,00,1610612752,NYK,29.0,58,50,1989,335,631,0.531,0,0,0.0,346,438,0.79,132,313,445,96,40,26,128,188,1016
76362,1987-88,00,1610612752,NYK,30.0,82,4,1676,287,528,0.544,0,0,0.0,340,426,0.798,127,257,384,85,43,43,135,234,914
76362,1988-89,00,1610612741,CHI,31.0,78,76,2333,365,768,0.475,0,0,0.0,236,308,0.766,152,369,521,90,21,41,190,234,966
76362,1989-90,00,1610612741,CHI,32.0,71,71,2160,292,598,0.488,0,0,0.0,227,280,0.811,137,328,465,145,38,34,123,243,811
76362,1990-91,00,1610612741,CHI,33.0,79,79,2273,318,649,0.49,0,0,0.0,124,178,0.697,167,319,486,126,32,15,113,167,760
76362,1991-92,00,1610612741,CHI,34.0,64,64,1471,208,445,0.467,0,0,0.0,96,159,0.604,93,231,324,87,22,14,75,131,512
76362,1992-93,00,1610612741,CHI,35.0,63,63,1253,141,343,0.411,0,0,0.0,72,98,0.735,83,150,233,83,20,10,62,154,354
76362,1993-94,00,1610612741,CHI,36.0,42,41,780,98,191,0.513,0,0,0.0,39,57,0.684,43,109,152,57,8,8,50,83,235
76362,1994-95,00,1610612760,SEA,37.0,29,19,430,27,69,0.391,0,0,0.0,15,24,0.625,25,62,87,10,6,3,18,70,69
270,1987-88,00,1610612741,CHI,22.0,81,6,1827,254,507,0.501,0,2,0.0,114,182,0.626,155,292,447,89,51,53,86,221,622
270,1988-89,00,1610612741,CHI,23.0,79,79,2809,405,781,0.519,0,5,0.0,140,199,0.704,240,441,681,168,86,62,128,251,950
270,1989-90,00,1610612741,CHI,24.0,80,80,2753,446,853,0.523,0,0,0.0,179,256,0.699,236,393,629,227,92,84,110,230,1071
270,1990-91,00,1610612741,CHI,25.0,78,76,2641,401,733,0.547,1,6,0.167,197,277,0.711,266,393,659,178,95,69,92,203,1000
270,1991-92,00,1610612741,CHI,26.0,81,81,2859,457,790,0.578,0,2,0.0,235,317,0.741,344,463,807,217,100,131,98,196,1149
270,1992-93,00,1610612741,CHI,27.0,77,77,2745,421,829,0.508,1,5,0.2,174,281,0.619,341,388,729,201,89,96,110,218,1017
270,1993-94,00,1610612741,CHI,28.0,70,69,2570,460,878,0.524,0,6,0.0,137,230,0.596,306,463,769,236,74,84,109,164,1057
270,1994-95,00,1610612753,ORL,29.0,74,74,2693,401,707,0.567,0,8,0.0,146,211,0.692,223,492,715,173,76,88,85,203,948
270,1995-96,00,1610612753,ORL,30.0,63,62,2286,347,677,0.513,1,6,0.167,152,207,0.734,178,402,580,170,62,74,64,144,847
270,1996-97,00,1610612753,ORL,31.0,67,67,2494,358,695,0.515,1,6,0.167,128,179,0.715,206,394,600,163,101,65,99,157,845
270,1997-98,00,1610612753,ORL,32.0,76,76,2803,393,857,0.459,0,7,0.0,135,199,0.678,228,390,618,172,81,79,88,180,921
270,1998-99,00,1610612753,ORL,33.0,50,50,1660,198,456,0.434,0,2,0.0,47,70,0.671,117,234,351,90,46,60,44,99,443
270,1999-00,00,1610612760,SEA,34.0,76,76,2688,266,599,0.444,0,4,0.0,80,111,0.721,167,424,591,188,55,60,61,192,612
270,2000-01,00,1610612747,LAL,35.0,77,77,2390,263,569,0.462,0,3,0.0,131,169,0.775,220,325,545,121,51,61,48,181,657
270,2001-02,00,1610612753,ORL,36.0,76,76,2212,264,515,0.513,0,0,0.0,80,111,0.721,159,322,481,104,57,49,51,118,608
270,2002-03,00,1610612753,ORL,37.0,5,1,85,13,25,0.52,0,0,0.0,0,0,0.0,2,6,8,7,3,0,1,5,26
270,2003-04,00,1610612747,LAL,38.0,55,10,1110,92,224,0.411,0,1,0.0,39,54,0.722,79,154,233,71,24,21,29,70,223
77138,1992-93,00,1610612757,POR,22.0,42,0,356,57,149,0.383,3,14,0.214,40,59,0.678,18,30,48,13,8,1,28,23,157
77138,1993-94,00,1610612741,CHI,23.0,17,0,119,17,54,0.315,0,1,0.0,13,21,0.619,9,7,16,4,4,0,9,7,47
77820,1983-84,00,1610612759,SAN,23.0,49,0,458,61,137,0.445,4,22,0.182,16,26,0.615,4,29,33,149,10,2,32,47,142
77820,1984-85,00,1610612759,SAN,24.0,78,1,1259,196,385,0.509,10,34,0.294,84,100,0.84,19,49,68,215,45,3,81,117,486
77820,1985-86,00,1610612741,CHI,25.0,75,3,1570,153,328,0.466,15,51,0.294,74,92,0.804,18,76,94,274,55,2,63,172,395
77820,1986-87,00,1610612741,CHI,26.0,82,64,2689,386,793,0.487,52,140,0.371,106,131,0.809,22,117,139,467,66,8,105,207,930
77820,1987-88,00,1610612741,CHI,27.0,81,30,1888,287,582,0.493,33,95,0.347,33,45,0.733,16,88,104,303,49,1,64,154,640
77820,1988-89,00,1610612741,CHI,28.0,78,20,1738,246,513,0.48,44,133,0.331,31,36,0.861,13,81,94,308,53,6,71,162,567
77820,1989-90,00,1610612741,CHI,29.0,82,82,2365,365,708,0.516,33,92,0.359,56,68,0.824,27,92,119,335,83,6,85,176,819
77820,1990-91,00,1610612741,CHI,30.0,82,82,1971,317,578,0.548,42,96,0.438,34,41,0.829,15,76,91,297,62,3,69,136,710
77820,1991-92,00,1610612741,CHI,31.0,79,79,1946,257,487,0.528,12,44,0.273,29,37,0.784,21,75,96,241,49,9,44,142,555
77820,1992-93,00,1610612741,CHI,32.0,59,8,1030,105,233,0.451,19,41,0.463,17,20,0.85,9,39,48,136,38,2,31,99,246
77820,1993-94,00,1610612741,CHI,33.0,27,0,343,30,68,0.441,9,22,0.409,1,2,0.5,3,17,20,33,7,2,6,18,70
281,1990-91,00,1610612741,CHI,23.0,51,0,337,53,104,0.51,1,2,0.5,20,28,0.714,42,56,98,16,12,13,23,51,127
281,1991-92,00,1610612741,CHI,24.0,63,0,690,83,172,0.483,0,3,0.0,48,74,0.649,90,157,247,50,13,36,35,122,214
281,1992-93,00,1610612741,CHI,25.0,71,5,1369,166,356,0.466,0,7,0.0,90,126,0.714,168,283,451,68,55,66,73,230,422
281,1993-94,00,1610612741,CHI,26.0,38,11,638,114,236,0.483,1,5,0.2,60,98,0.612,69,112,181,39,16,21,44,112,289
281,1994-95,00,1610612755,PHL,27.0,77,43,1781,206,434,0.475,0,7,0.0,79,107,0.738,173,312,485,59,71,40,84,237,491
281,1995-96,00,1610612755,PHL,28.0,13,1,193,15,29,0.517,0,2,0.0,10,12,0.833,13,33,46,5,6,7,8,27,40
281,1996-97,00,1610612755,PHI,29.0,62,52,1319,162,318,0.509,0,2,0.0,38,55,0.691,155,242,397,41,44,41,50,206,362
281,1997-98,00,1610612755,PHI,30.0,58,7,801,93,213,0.437,0,5,0.0,51,63,0.81,87,124,211,29,17,21,30,132,237
281,1998-99,00,1610612755,PHI,31.0,2,0,17,0,2,0.0,0,0,0.0,0,0,0.0,1,1,2,1,2,1,2,4,0
281,1998-99,00,1610612749,MIL,31.0,5,0,29,5,15,0.333,0,0,0.0,4,7,0.571,2,10,12,0,1,1,2,5,14
281,1998-99,00,0,TOT,31.0,7,0,46,5,17,0.294,0,0,0.0,4,7,0.571,3,11,14,1,3,2,4,9,14
281,1999-00,00,1610612749,MIL,32.0,68,46,1488,213,426,0.5,0,0,0.0,94,129,0.729,177,271,448,28,40,66,65,230,520
281,2000-01,00,1610612749,MIL,33.0,66,31,1272,171,361,0.474,1,4,0.25,60,70,0.857,97,267,364,35,48,32,41,178,403
281,2001-02,00,1610612743,DEN,34.0,41,16,736,86,217,0.396,0,2,0.0,30,41,0.732,82,127,209,13,17,33,35,98,202
281,2002-03,00,1610612756,PHX,35.0,69,33,872,120,292,0.411,0,2,0.0,33,42,0.786,72,121,193,22,27,21,32,159,273
281,2003-04,00,1610612756,PHX,36.0,16,10,271,53,101,0.525,2,2,1.0,9,13,0.692,23,49,72,6,15,7,6,45,117
281,2003-04,00,1610612742,DAL,36.0,27,11,260,37,85,0.435,0,1,0.0,7,14,0.5,15,45,60,11,5,9,10,50,81
281,2003-04,00,0,TOT,36.0,43,21,531,90,186,0.484,2,3,0.667,16,27,0.593,38,94,132,17,20,16,16,95,198
281,2004-05,00,1610612739,CLE,37.0,19,0,152,12,41,0.293,0,1,0.0,9,11,0.818,15,15,30,8,4,6,5,30,33
76676,1992-93,00,1610612741,CHI,23.0,6,0,31,3,10,0.3,0,3,0.0,0,2,0.0,2,4,6,1,3,2,4,5,6
76676,1993-94,00,1610612741,CHI,24.0,36,0,419,56,129,0.434,8,17,0.471,10,21,0.476,9,36,45,38,8,10,36,61,130
76676,1994-95,00,1610612741,CHI,25.0,8,0,127,15,39,0.385,3,12,0.25,10,13,0.769,1,2,3,7,7,1,6,19,43
1474,1986-87,00,1610612759,SAN,22.0,68,2,1004,170,373,0.456,1,12,0.083,110,148,0.743,77,162,239,85,22,12,67,141,451
1474,1987-88,00,1610612749,MIL,23.0,50,7,1050,128,266,0.481,0,3,0.0,103,127,0.811,88,143,231,50,18,8,57,137,359
1474,1988-89,00,1610612749,MIL,24.0,80,77,2472,362,766,0.473,4,12,0.333,289,351,0.823,198,412,610,107,93,9,147,219,1017
1474,1989-90,00,1610612749,MIL,25.0,16,7,381,43,118,0.364,0,2,0.0,26,33,0.788,16,60,76,25,10,2,19,41,112
1474,1991-92,00,1610612749,MIL,27.0,79,16,1848,293,660,0.444,0,5,0.0,128,169,0.757,131,298,429,114,54,12,115,218,714
1474,1992-93,00,1610612762,UTH,28.0,71,0,1362,198,425,0.466,0,1,0.0,117,147,0.796,74,205,279,68,42,13,62,181,513
1474,1993-94,00,1610612753,ORL,29.0,34,11,682,71,148,0.48,0,1,0.0,31,39,0.795,38,85,123,35,14,4,29,74,173
1474,1994-95,00,1610612741,CHI,30.0,19,14,287,28,72,0.389,0,0,0.0,27,30,0.9,19,40,59,26,9,2,25,34,83
1474,1996-97,00,1610612747,LAL,32.0,3,0,12,1,2,0.5,0,0,0.0,1,2,0.5,2,3,5,3,2,0,1,3,3
939,1986-87,00,1610612741,CHI,23.0,29,0,155,19,52,0.365,0,6,0.0,28,43,0.651,8,9,17,21,14,2,10,25,66
939,1987-88,00,1610612759,SAN,24.0,22,0,328,43,95,0.453,0,4,0.0,26,39,0.667,11,26,37,48,17,6,33,30,112
939,1988-89,00,1610612755,PHL,25.0,4,0,40,6,12,0.5,0,0,0.0,2,4,0.5,3,7,10,2,3,0,4,3,14
939,1988-89,00,1610612752,NYK,25.0,29,0,230,25,61,0.41,0,2,0.0,31,44,0.705,12,11,23,46,17,2,19,41,81
939,1988-89,00,0,TOT,25.0,33,0,270,31,73,0.425,0,2,0.0,33,48,0.688,15,18,33,48,20,2,23,44,95
939,1989-90,00,1610612752,NYK,26.0,24,0,208,15,45,0.333,0,1,0.0,16,31,0.516,10,18,28,35,15,2,18,39,46
939,1989-90,00,1610612751,NJN,26.0,28,2,543,74,180,0.411,0,6,0.0,50,69,0.725,23,45,68,100,20,9,58,70,198
939,1989-90,00,0,TOT,26.0,52,2,751,89,225,0.396,0,7,0.0,66,100,0.66,33,63,96,135,35,11,76,109,244
939,1990-91,00,1610612759,SAN,27.0,8,1,103,10,23,0.435,0,1,0.0,9,11,0.818,2,16,18,14,3,3,14,14,29
939,1993-94,00,1610612741,CHI,30.0,82,81,2030,253,556,0.455,8,29,0.276,136,194,0.701,54,127,181,245,78,20,136,195,650
939,1994-95,00,1610612741,CHI,31.0,71,14,1270,119,287,0.415,10,39,0.256,70,114,0.614,57,82,139,148,58,15,88,125,318
939,1995-96,00,1610612748,MIA,32.0,39,1,639,62,160,0.388,11,42,0.262,49,76,0.645,21,52,73,97,14,11,56,75,184
939,1995-96,00,1610612766,CHH,32.0,32,1,453,29,87,0.333,3,16,0.188,31,46,0.674,14,53,67,48,20,6,25,57,92
939,1995-96,00,0,TOT,32.0,71,2,1092,91,247,0.368,14,58,0.241,80,122,0.656,35,105,140,145,34,17,81,132,276
939,1997-98,00,1610612752,NYK,34.0,9,0,40,5,10,0.5,0,0,0.0,4,6,0.667,5,5,10,3,4,0,4,7,14
781,1988-89,00,1610612741,CHI,23.0,30,0,190,29,72,0.403,0,0,0.0,8,14,0.571,18,27,45,11,4,6,15,38,66
781,1989-90,00,1610612741,CHI,24.0,77,11,884,111,268,0.414,0,5,0.0,72,104,0.692,88,126,214,46,19,26,65,150,294
781,1990-91,00,1610612741,CHI,25.0,74,3,972,116,235,0.494,0,3,0.0,75,112,0.67,122,214,336,47,23,57,75,147,307
781,1991-92,00,1610612741,CHI,26.0,77,7,1007,152,278,0.547,1,2,0.5,45,91,0.495,108,204,312,80,16,43,72,133,350
781,1992-93,00,1610612741,CHI,27.0,72,16,998,137,246,0.557,0,1,0.0,67,111,0.604,103,184,287,74,22,47,74,139,341
781,1993-94,00,1610612741,CHI,28.0,43,6,397,47,112,0.42,0,1,0.0,23,32,0.719,40,86,126,34,8,11,42,61,117
781,1994-95,00,1610612741,CHI,29.0,78,78,1592,254,459,0.553,0,1,0.0,113,194,0.582,211,311,522,90,26,56,116,220,621
781,1995-96,00,1610612759,SAN,30.0,80,22,1396,173,331,0.523,0,1,0.0,67,125,0.536,175,310,485,33,28,75,86,183,413
781,1996-97,00,1610612759,SAS,31.0,65,34,1919,233,410,0.568,0,0,0.0,99,171,0.579,251,387,638,38,32,102,87,184,565
781,1997-98,00,1610612759,SAS,32.0,79,30,1491,162,295,0.549,0,1,0.0,70,133,0.526,177,358,535,57,22,50,81,137,394
781,1998-99,00,1610612759,SAS,33.0,37,1,445,38,60,0.633,0,0,0.0,14,26,0.538,33,105,138,18,9,10,22,63,90
781,1999-00,00,1610612741,CHI,34.0,67,15,1012,59,168,0.351,0,0,0.0,50,105,0.476,88,174,262,65,14,42,78,126,168
781,2000-01,00,1610612757,POR,35.0,13,0,58,6,9,0.667,0,0,0.0,2,4,0.5,6,12,18,2,3,2,0,8,14
927,1986-87,00,1610612765,DET,23.0,82,2,1463,163,290,0.562,0,1,0.0,105,171,0.614,108,188,296,54,44,125,74,256,431
927,1987-88,00,1610612765,DET,24.0,82,16,2003,258,456,0.566,0,0,0.0,185,261,0.709,166,236,402,113,53,137,120,294,701
927,1988-89,00,1610612765,DET,25.0,67,21,1458,166,333,0.498,0,2,0.0,135,195,0.692,134,201,335,75,40,72,100,197,467
927,1989-90,00,1610612765,DET,26.0,82,12,1914,209,408,0.512,1,4,0.25,174,244,0.713,154,285,439,67,51,153,97,282,593
927,1990-91,00,1610612765,DET,27.0,74,1,1649,179,377,0.475,0,1,0.0,186,256,0.727,137,190,327,70,52,112,91,240,544
927,1991-92,00,1610612765,DET,28.0,72,38,1774,249,486,0.512,0,3,0.0,186,260,0.715,106,190,296,116,49,110,102,222,684
927,1992-93,00,1610612748,MIA,29.0,51,34,1422,154,307,0.502,0,0,0.0,115,144,0.799,113,200,313,83,32,70,101,192,423
927,1993-94,00,1610612748,MIA,30.0,76,45,1910,208,436,0.477,2,3,0.667,164,225,0.729,132,275,407,135,56,78,94,260,582
927,1994-95,00,1610612748,MIA,31.0,75,50,1955,197,395,0.499,0,0,0.0,153,207,0.739,110,226,336,123,47,85,97,279,547
927,1995-96,00,1610612761,TOR,32.0,25,6,482,51,105,0.486,0,0,0.0,47,65,0.723,26,71,97,39,11,12,39,72,149
927,1995-96,00,1610612741,CHI,32.0,17,0,191,12,35,0.343,0,0,0.0,12,20,0.6,20,23,43,15,8,15,16,38,36
927,1995-96,00,0,TOT,32.0,42,6,673,63,140,0.45,0,0,0.0,59,85,0.694,46,94,140,54,19,27,55,110,185
927,1999-00,00,1610612747,LAL,36.0,45,3,303,25,69,0.362,0,0,0.0,21,28,0.75,20,45,65,26,8,14,18,67,71
229,1977-78,00,1610612747,LAL,22.0,25,20,723,145,316,0.459,,,,80,125,0.64,44,136,180,29,16,28,57,89,370
229,1977-78,00,1610612754,IND,22.0,58,52,1682,350,777,0.45,,,,192,296,0.649,153,282,435,56,37,50,112,233,892
229,1977-78,00,0,TOT,22.0,83,72,2405,495,1093,0.453,,,,272,421,0.646,197,418,615,85,53,78,169,322,1262
229,1978-79,00,1610612754,IND,23.0,82,82,2546,534,1065,0.501,,,,298,441,0.676,179,514,693,92,60,109,162,363,1366
229,1979-80,00,1610612754,IND,24.0,82,82,2314,528,1032,0.512,0.0,1.0,0.0,231,339,0.681,179,399,578,127,55,104,131,324,1287
229,1980-81,00,1610612754,IND,25.0,81,80,2375,511,1004,0.509,0.0,3.0,0.0,244,347,0.703,191,380,571,212,32,128,164,304,1266
229,1981-82,00,1610612739,CLE,26.0,77,75,2539,528,1033,0.511,0.0,4.0,0.0,232,339,0.684,189,392,581,123,24,117,162,347,1288
229,1982-83,00,1610612739,CLE,27.0,15,8,382,73,150,0.487,0.0,0.0,0.0,38,61,0.623,37,59,96,13,7,14,30,61,184
229,1982-83,00,1610612756,PHX,27.0,16,1,285,55,113,0.487,0.0,0.0,0.0,31,47,0.66,19,40,59,27,5,5,19,49,141
229,1982-83,00,0,TOT,27.0,31,9,667,128,263,0.487,0.0,0.0,0.0,69,108,0.639,56,99,155,40,12,19,49,110,325
229,1983-84,00,1610612756,PHX,28.0,72,67,1897,438,817,0.536,0.0,1.0,0.0,183,254,0.72,108,240,348,184,23,30,140,254,1059
229,1984-85,00,1610612756,PHX,29.0,70,58,1787,384,766,0.501,0.0,3.0,0.0,276,370,0.746,95,292,387,153,26,52,162,237,1044
229,1985-86,00,1610612756,PHX,30.0,52,51,1314,318,587,0.542,0.0,0.0,0.0,212,302,0.702,79,222,301,74,23,29,128,200,848
229,1986-87,00,1610612756,PHX,31.0,14,9,304,57,110,0.518,0.0,0.0,0.0,54,70,0.771,20,40,60,19,6,7,15,42,168
229,1987-88,00,1610612756,PHX,32.0,43,42,1377,254,542,0.469,0.0,1.0,0.0,165,260,0.635,97,238,335,73,14,32,108,159,673
229,1987-88,00,1610612765,DET,32.0,26,2,328,48,101,0.475,0.0,0.0,0.0,45,61,0.738,22,55,77,5,2,5,22,57,141
229,1987-88,00,0,TOT,32.0,69,44,1705,302,643,0.47,0.0,1.0,0.0,210,321,0.654,119,293,412,78,16,37,130,216,814
229,1988-89,00,1610612765,DET,33.0,76,1,1254,211,422,0.5,0.0,2.0,0.0,133,194,0.686,68,163,231,49,11,31,72,226,555
229,1989-90,00,1610612765,DET,34.0,82,70,2283,462,928,0.498,0.0,3.0,0.0,265,354,0.749,112,233,345,63,23,37,133,295,1189
229,1990-91,00,1610612765,DET,35.0,72,70,1903,383,792,0.484,1.0,2.0,0.5,215,295,0.729,91,186,277,65,12,30,126,249,982
229,1991-92,00,1610612746,LAC,36.0,72,11,1437,250,538,0.465,0.0,1.0,0.0,198,271,0.731,55,147,202,53,24,33,72,236,698
229,1992-93,00,1610612747,LAL,37.0,52,0,617,122,270,0.452,0.0,0.0,0.0,84,118,0.712,30,70,100,41,10,7,51,122,328
229,1993-94,00,1610612747,LAL,38.0,45,2,469,78,168,0.464,0.0,0.0,0.0,54,79,0.684,11,54,65,22,4,3,30,90,210
229,1994-95,00,1610612757,POR,39.0,28,0,266,32,83,0.386,0.0,0.0,0.0,11,17,0.647,10,33,43,8,5,8,14,44,75
229,1995-96,00,1610612741,CHI,40.0,28,0,274,41,110,0.373,0.0,0.0,0.0,16,26,0.615,15,25,40,11,1,8,21,61,98
917,1988-89,00,1610612741,CHI,25.0,51,1,289,37,78,0.474,0,0,0.0,36,46,0.783,21,50,71,10,11,0,26,56,110
917,1989-90,00,1610612741,CHI,26.0,11,0,58,9,20,0.45,0,0,0.0,7,7,1.0,7,11,18,4,0,1,7,7,25
917,1989-90,00,1610612751,NJN,26.0,56,26,1026,129,327,0.394,0,1,0.0,78,118,0.661,108,174,282,22,18,11,65,163,336
917,1989-90,00,0,TOT,26.0,67,26,1084,138,347,0.398,0,1,0.0,85,125,0.68,115,185,300,26,18,12,72,170,361
917,1990-91,00,1610612751,NJN,27.0,78,18,1178,161,343,0.469,0,0,0.0,112,181,0.619,140,216,356,31,20,21,63,199,434
917,1991-92,00,1610612747,LAL,28.0,49,9,394,31,84,0.369,0,0,0.0,14,29,0.483,31,64,95,7,7,8,25,75,76
917,1993-94,00,1610612759,SAN,30.0,28,0,94,21,48,0.438,0,0,0.0,17,21,0.81,6,18,24,1,0,0,10,18,59
917,1994-95,00,1610612759,SAN,31.0,31,0,117,26,61,0.426,0,1,0.0,21,32,0.656,8,19,27,2,3,5,13,31,73
917,1995-96,00,1610612741,CHI,32.0,1,0,7,2,6,0.333,0,0,0.0,1,2,0.5,1,1,2,0,0,0,1,2,5
917,1996-97,00,1610612751,NJN,33.0,20,0,75,13,37,0.351,0,0,0.0,14,19,0.737,13,19,32,5,1,1,2,14,40
917,1997-98,00,1610612751,NJN,34.0,16,0,51,5,18,0.278,0,1,0.0,12,21,0.571,5,10,15,0,0,1,4,9,22
305,1976-77,00,1610612744,GOS,23.0,77,1,1384,288,573,0.503,,,,121,171,0.708,201,342,543,74,55,94,,224,697
305,1977-78,00,1610612744,GOS,24.0,82,37,1969,430,911,0.472,,,,165,264,0.625,211,469,680,95,79,123,201.0,291,1025
305,1978-79,00,1610612744,GOS,25.0,76,75,2411,554,1110,0.499,,,,196,281,0.698,265,651,916,115,100,217,233.0,303,1304
305,1979-80,00,1610612744,GOS,26.0,72,69,2119,510,1006,0.507,0.0,1.0,0.0,203,284,0.715,247,536,783,122,58,115,225.0,248,1223
305,1980-81,00,1610612738,BOS,27.0,82,82,2298,635,1166,0.545,0.0,1.0,0.0,282,397,0.71,245,532,777,144,81,214,191.0,310,1552
305,1981-82,00,1610612738,BOS,28.0,80,78,2534,669,1235,0.542,0.0,0.0,0.0,252,355,0.71,288,578,866,140,68,192,221.0,267,1590
305,1982-83,00,1610612738,BOS,29.0,78,76,2459,619,1125,0.55,0.0,1.0,0.0,271,388,0.698,260,567,827,141,79,148,185.0,222,1509
305,1983-84,00,1610612738,BOS,30.0,80,79,2867,623,1140,0.546,0.0,0.0,0.0,274,368,0.745,243,614,857,139,55,116,184.0,266,1520
305,1984-85,00,1610612738,BOS,31.0,79,78,2850,551,1016,0.542,0.0,0.0,0.0,292,393,0.743,263,577,840,125,56,101,186.0,223,1394
305,1985-86,00,1610612738,BOS,32.0,81,80,2567,530,966,0.549,0.0,0.0,0.0,245,335,0.731,246,524,770,145,65,116,187.0,215,1305
305,1986-87,00,1610612738,BOS,33.0,80,80,2995,588,1057,0.556,0.0,1.0,0.0,227,309,0.735,254,597,851,173,64,144,191.0,266,1403
305,1987-88,00,1610612738,BOS,34.0,74,73,2312,442,750,0.589,0.0,1.0,0.0,177,241,0.734,173,455,628,115,55,84,154.0,198,1061
305,1988-89,00,1610612738,BOS,35.0,80,80,2840,596,1045,0.57,0.0,0.0,0.0,294,409,0.719,342,654,996,175,79,116,200.0,209,1486
305,1989-90,00,1610612738,BOS,36.0,79,78,2396,505,871,0.58,0.0,0.0,0.0,233,312,0.747,259,537,796,103,38,69,169.0,189,1243
305,1990-91,00,1610612738,BOS,37.0,81,81,2441,485,811,0.598,0.0,1.0,0.0,237,309,0.767,271,585,856,66,66,103,153.0,197,1207
305,1991-92,00,1610612738,BOS,38.0,79,79,2285,468,874,0.535,0.0,0.0,0.0,179,232,0.772,219,486,705,70,68,97,131.0,172,1115
305,1992-93,00,1610612738,BOS,39.0,79,79,2146,416,777,0.535,0.0,0.0,0.0,162,235,0.689,246,494,740,61,57,107,120.0,201,994
305,1993-94,00,1610612738,BOS,40.0,74,74,1987,356,725,0.491,0.0,0.0,0.0,154,208,0.74,141,401,542,82,42,96,108.0,190,866
305,1994-95,00,1610612766,CHH,41.0,81,4,1352,159,372,0.427,0.0,0.0,0.0,71,101,0.703,93,257,350,44,27,36,66.0,132,389
305,1995-96,00,1610612766,CHH,42.0,74,34,1086,120,241,0.498,0.0,0.0,0.0,50,71,0.704,89,214,303,29,21,54,50.0,80,290
305,1996-97,00,1610612741,CHI,43.0,43,3,406,70,143,0.49,0.0,0.0,0.0,21,31,0.677,42,47,89,22,6,19,28.0,40,161
183,1991-92,00,1610612753,ORL,23.0,48,2,905,171,324,0.528,0,0,0.0,95,142,0.669,115,157,272,33,41,53,86,139,437
183,1992-93,00,1610612753,ORL,24.0,21,0,240,40,78,0.513,0,1,0.0,16,20,0.8,24,32,56,5,14,17,25,48,96
183,1993-94,00,1610612743,DEN,25.0,80,1,1507,251,464,0.541,0,3,0.0,137,211,0.649,138,308,446,50,49,87,104,221,639
183,1994-95,00,1610612743,DEN,26.0,63,10,1261,196,333,0.589,0,0,0.0,106,162,0.654,98,200,298,53,38,43,114,210,498
183,1995-96,00,1610612746,LAC,27.0,65,65,2157,416,766,0.543,1,6,0.167,196,267,0.734,149,343,492,122,70,55,190,226,1029
183,1996-97,00,1610612741,CHI,28.0,9,0,138,26,63,0.413,0,0,0.0,11,15,0.733,14,19,33,12,3,5,11,20,63
183,1997-98,00,1610612765,DET,29.0,78,78,2619,531,1040,0.511,1,3,0.333,198,280,0.707,223,472,695,94,67,55,181,252,1261
183,1998-99,00,1610612765,DET,30.0,49,48,1177,216,431,0.501,0,1,0.0,81,118,0.686,92,180,272,71,38,40,111,181,513
679,1995-96,00,1610612741,CHI,23.0,57,0,545,71,162,0.438,0,1,0.0,40,68,0.588,51,60,111,24,12,7,48,91,182
679,1996-97,00,1610612741,CHI,24.0,75,19,1409,205,385,0.532,0,1,0.0,139,211,0.659,135,166,301,89,25,9,97,149,549
679,1997-98,00,1610612741,CHI,25.0,51,8,710,100,199,0.503,0,1,0.0,68,103,0.66,76,97,173,36,13,17,48,92,268
679,1997-98,00,1610612744,GSW,25.0,29,6,713,126,267,0.472,0,1,0.0,63,97,0.649,84,87,171,31,12,3,57,89,315
679,1997-98,00,0,TOT,25.0,80,14,1423,226,466,0.485,0,2,0.0,131,200,0.655,160,184,344,67,25,20,105,181,583
679,1998-99,00,1610612744,GSW,26.0,35,32,876,123,277,0.444,0,1,0.0,62,98,0.633,79,126,205,18,24,9,75,113,308
679,1999-00,00,1610612744,GSW,27.0,71,56,2159,323,675,0.479,0,2,0.0,206,345,0.597,189,293,482,119,62,20,170,269,852
679,2000-01,00,1610612749,MIL,28.0,70,33,1460,179,367,0.488,0,0,0.0,142,211,0.673,135,218,353,53,38,25,77,184,500
679,2001-02,00,1610612749,MIL,29.0,23,0,285,36,72,0.5,0,1,0.0,27,43,0.628,24,26,50,12,4,5,19,39,99
679,2002-03,00,1610612749,MIL,30.0,51,16,894,113,248,0.456,0,0,0.0,69,106,0.651,68,108,176,38,19,15,56,122,295
753,1991-92,00,1610612758,SAC,24.0,56,0,535,77,169,0.456,0,6,0.0,38,58,0.655,26,43,69,59,35,12,42,68,192
753,1992-93,00,1610612758,SAC,25.0,75,34,1726,225,486,0.463,2,6,0.333,115,157,0.732,75,137,212,196,108,34,120,206,567
753,1993-94,00,1610612758,SAC,26.0,61,2,1041,110,251,0.438,0,4,0.0,53,87,0.609,40,72,112,133,63,14,75,132,273
753,1994-95,00,1610612758,SAC,27.0,67,2,1086,124,287,0.432,14,47,0.298,55,82,0.671,24,84,108,133,99,19,78,153,317
753,1995-96,00,1610612741,CHI,28.0,68,0,671,78,192,0.406,1,11,0.091,28,46,0.609,17,49,66,73,57,12,31,88,185
753,1996-97,00,1610612741,CHI,29.0,72,3,1061,140,333,0.42,4,22,0.182,57,84,0.679,34,77,111,133,81,17,58,116,341
753,1997-98,00,1610612741,CHI,30.0,71,6,1147,116,302,0.384,0,5,0.0,56,78,0.718,34,60,94,151,71,12,63,118,288
753,1998-99,00,1610612741,CHI,31.0,39,32,1139,132,319,0.414,0,10,0.0,78,103,0.757,27,105,132,149,68,8,80,93,342
753,1999-00,00,1610612741,CHI,32.0,59,55,1625,157,435,0.361,3,6,0.5,62,84,0.738,23,121,144,202,61,15,105,120,379
753,2000-01,00,1610612738,BOS,33.0,54,35,1238,100,237,0.422,0,3,0.0,23,40,0.575,23,76,99,154,62,10,56,132,223
753,2001-02,00,1610612738,BOS,34.0,1,0,6,0,1,0.0,0,0,0.0,0,0,0.0,0,0,0,2,0,1,0,1,0
753,2002-03,00,1610612756,PHX,35.0,32,0,262,16,43,0.372,0,0,0.0,9,12,0.75,3,23,26,35,17,2,17,36,41
26,1991-92,00,1610612750,MIN,23.0,66,3,991,114,249,0.458,0,0,0.0,53,80,0.663,67,190,257,53,35,64,83,157,281
26,1992-93,00,1610612750,MIN,24.0,55,25,1045,133,292,0.455,0,0,0.0,53,74,0.716,71,169,240,51,47,77,88,169,319
26,1993-94,00,1610612750,MIN,25.0,49,29,989,134,289,0.464,0,1,0.0,56,80,0.7,87,208,295,46,35,58,79,131,324
26,1993-94,00,1610612741,CHI,25.0,27,17,513,85,176,0.483,0,0,0.0,34,45,0.756,42,96,138,63,10,21,40,85,204
26,1993-94,00,0,TOT,25.0,76,46,1502,219,465,0.471,0,1,0.0,90,125,0.72,129,304,433,109,45,79,119,216,528
26,1994-95,00,1610612741,CHI,26.0,55,0,1001,135,302,0.447,0,2,0.0,88,107,0.822,82,181,263,73,24,45,86,177,358
26,1995-96,00,1610612741,CHI,27.0,62,62,1641,242,502,0.482,0,0,0.0,80,103,0.777,104,214,318,119,22,84,114,223,564
26,1996-97,00,1610612741,CHI,28.0,59,59,1472,221,485,0.456,0,2,0.0,95,120,0.792,121,211,332,141,23,66,111,191,537
26,1997-98,00,1610612741,CHI,29.0,58,58,1703,277,609,0.455,0,0,0.0,109,148,0.736,113,228,341,161,34,62,130,206,663
26,1998-99,00,1610612756,PHX,30.0,39,39,933,140,290,0.483,0,0,0.0,59,76,0.776,59,162,221,45,23,21,53,119,339
26,1999-00,00,1610612756,PHX,31.0,72,68,1417,186,399,0.466,0,0,0.0,80,97,0.825,100,223,323,77,22,42,136,221,452
26,2000-01,00,1610612752,NYK,32.0,25,2,301,18,54,0.333,0,0,0.0,13,17,0.765,26,40,66,7,3,9,22,51,49
893,1984-85,00,1610612741,CHI,22.0,82,82,3144,837,1625,0.515,9,52,0.173,630,746,0.845,167,367,534,481,196,69,291,285,2313
893,1985-86,00,1610612741,CHI,23.0,18,7,451,150,328,0.457,3,18,0.167,105,125,0.84,23,41,64,53,37,21,45,46,408
893,1986-87,00,1610612741,CHI,24.0,82,82,3281,1098,2279,0.482,12,66,0.182,833,972,0.857,166,264,430,377,236,125,272,237,3041
893,1987-88,00,1610612741,CHI,25.0,82,82,3311,1069,1998,0.535,7,53,0.132,723,860,0.841,139,310,449,485,259,131,252,270,2868
893,1988-89,00,1610612741,CHI,26.0,81,81,3255,966,1795,0.538,27,98,0.276,674,793,0.85,149,503,652,650,234,65,290,247,2633
893,1989-90,00,1610612741,CHI,27.0,82,82,3197,1034,1964,0.526,92,245,0.376,593,699,0.848,143,422,565,519,227,54,247,241,2753
893,1990-91,00,1610612741,CHI,28.0,82,82,3034,990,1837,0.539,29,93,0.312,571,671,0.851,118,374,492,453,223,83,202,229,2580
893,1991-92,00,1610612741,CHI,29.0,80,80,3102,943,1818,0.519,27,100,0.27,491,590,0.832,91,420,511,489,182,75,200,201,2404
893,1992-93,00,1610612741,CHI,30.0,78,78,3067,992,2003,0.495,81,230,0.352,476,569,0.837,135,387,522,428,221,61,207,188,2541
893,1994-95,00,1610612741,CHI,32.0,17,17,668,166,404,0.411,16,32,0.5,109,136,0.801,25,92,117,90,30,13,35,47,457
893,1995-96,00,1610612741,CHI,33.0,82,82,3090,916,1850,0.495,111,260,0.427,548,657,0.834,148,395,543,352,180,42,197,195,2491
893,1996-97,00,1610612741,CHI,34.0,82,82,3109,920,1892,0.486,111,297,0.374,480,576,0.833,113,369,482,352,140,44,166,156,2431
893,1997-98,00,1610612741,CHI,35.0,82,82,3181,881,1893,0.465,30,126,0.238,565,721,0.784,130,345,475,283,141,45,185,151,2357
893,2001-02,00,1610612764,WAS,39.0,60,53,2089,551,1324,0.416,10,53,0.189,263,333,0.79,50,289,339,310,85,26,162,119,1375
893,2002-03,00,1610612764,WAS,40.0,82,67,3031,679,1527,0.445,16,55,0.291,266,324,0.821,71,426,497,311,123,39,173,171,1640
197,1993-94,00,1610612766,CHH,23.0,51,16,767,98,234,0.419,2,6,0.333,46,70,0.657,46,86,132,62,37,16,45,88,244
197,1994-95,00,1610612766,CHH,24.0,65,62,2014,277,593,0.467,96,235,0.409,100,144,0.694,96,272,368,161,75,40,85,187,750
197,1995-96,00,1610612766,CHH,25.0,20,20,693,92,206,0.447,37,98,0.378,42,56,0.75,26,72,98,47,27,13,43,76,263
197,1996-97,00,1610612766,CHH,26.0,28,2,482,45,131,0.344,19,55,0.345,42,53,0.792,24,55,79,39,14,11,25,60,151
197,1996-97,00,1610612744,GSW,26.0,29,0,461,53,140,0.379,22,61,0.361,15,23,0.652,25,54,79,35,14,8,28,60,143
197,1996-97,00,0,TOT,26.0,57,2,943,98,271,0.362,41,116,0.353,57,76,0.75,49,109,158,74,28,19,53,120,294
197,1997-98,00,1610612741,CHI,27.0,80,3,1096,159,375,0.424,51,144,0.354,47,64,0.734,80,118,198,65,64,37,50,131,416
197,1998-99,00,1610612751,NJN,28.0,32,10,706,75,208,0.361,28,72,0.389,34,42,0.81,32,87,119,45,40,11,23,82,212
197,1999-00,00,1610612751,NJN,29.0,74,9,1336,165,419,0.394,82,232,0.353,39,50,0.78,65,191,256,72,67,44,38,173,451
197,2000-01,00,1610612766,CHH,30.0,4,0,41,7,15,0.467,2,6,0.333,1,4,0.25,1,2,3,1,3,0,0,8,17
70,1988-89,00,1610612756,PHX,23.0,26,0,157,20,46,0.435,8,17,0.471,6,9,0.667,3,14,17,24,7,0,6,12,54
70,1989-90,00,1610612739,CLE,24.0,78,5,1664,192,432,0.444,73,144,0.507,63,73,0.863,12,86,98,248,45,7,74,59,520
70,1990-91,00,1610612739,CLE,25.0,57,4,905,99,223,0.444,28,62,0.452,45,53,0.849,5,32,37,131,29,4,40,52,271
70,1991-92,00,1610612739,CLE,26.0,48,20,847,121,237,0.511,32,74,0.432,45,54,0.833,14,64,78,110,27,10,31,29,319
70,1992-93,00,1610612739,CLE,27.0,5,0,41,5,10,0.5,0,2,0.0,2,2,1.0,0,7,7,11,2,0,2,2,12
70,1992-93,00,1610612753,ORL,27.0,47,0,440,48,112,0.429,6,24,0.25,20,22,0.909,5,33,38,59,8,1,25,34,122
70,1992-93,00,0,TOT,27.0,52,0,481,53,122,0.434,6,26,0.231,22,24,0.917,5,40,45,70,10,1,27,36,134
70,1993-94,00,1610612741,CHI,28.0,82,0,2036,287,577,0.497,52,124,0.419,83,97,0.856,26,105,131,210,75,3,57,97,709
70,1994-95,00,1610612741,CHI,29.0,82,0,1839,261,495,0.527,89,170,0.524,63,81,0.778,20,99,119,151,44,3,48,114,674
70,1995-96,00,1610612741,CHI,30.0,82,0,1919,244,482,0.506,122,237,0.515,78,84,0.929,25,85,110,192,63,2,42,109,688
70,1996-97,00,1610612741,CHI,31.0,82,0,1858,249,467,0.533,110,237,0.464,54,67,0.806,29,101,130,175,67,3,43,98,662
70,1997-98,00,1610612741,CHI,32.0,50,0,1119,137,302,0.454,57,130,0.438,45,49,0.918,14,63,77,96,26,5,27,71,376
70,1998-99,00,1610612759,SAS,33.0,44,0,734,68,174,0.391,25,80,0.313,31,35,0.886,6,38,44,49,23,3,22,28,192
70,1999-00,00,1610612759,SAS,34.0,32,0,268,32,74,0.432,16,31,0.516,9,11,0.818,3,16,19,12,4,0,7,14,89
70,2000-01,00,1610612759,SAS,35.0,55,1,650,67,159,0.421,33,77,0.429,14,15,0.933,6,29,35,57,16,1,21,30,181
70,2001-02,00,1610612757,POR,36.0,65,0,774,102,217,0.47,26,66,0.394,39,40,0.975,6,54,60,63,13,1,24,49,269
70,2002-03,00,1610612759,SAS,37.0,75,0,952,110,256,0.43,49,124,0.395,30,34,0.882,12,48,60,70,27,3,35,49,299
146,1990-91,00,1610612751,NJN,23.0,74,10,859,94,226,0.416,1,4,0.25,43,66,0.652,61,80,141,51,33,15,26,79,232
146,1991-92,00,1610612751,NJN,24.0,2,0,29,4,8,0.5,0,0,0.0,0,0,0.0,2,0,2,2,2,1,1,2,8
146,1991-92,00,1610612759,SAN,24.0,11,0,140,15,30,0.5,0,0,0.0,3,9,0.333,6,16,22,11,8,3,5,18,33
146,1991-92,00,1610612744,GOS,24.0,15,0,121,10,33,0.303,0,1,0.0,9,12,0.75,10,18,28,10,9,3,7,11,29
146,1991-92,00,0,TOT,24.0,28,0,290,29,71,0.408,0,1,0.0,12,21,0.571,18,34,52,23,19,7,13,31,70
146,1992-93,00,1610612744,GOS,25.0,70,9,1287,176,403,0.437,20,59,0.339,65,87,0.747,81,114,195,94,47,19,55,98,437
146,1993-94,00,1610612744,GOS,26.0,36,0,218,42,84,0.5,12,29,0.414,10,20,0.5,13,19,32,16,8,1,12,24,106
146,1994-95,00,1610612741,CHI,27.0,57,0,605,90,183,0.492,15,48,0.313,22,39,0.564,36,62,98,50,24,12,30,64,217
146,1995-96,00,1610612741,CHI,28.0,74,0,740,112,242,0.463,40,90,0.444,14,22,0.636,45,66,111,56,34,7,39,70,278
146,1996-97,00,1610612741,CHI,29.0,76,0,701,58,158,0.367,18,54,0.333,5,14,0.357,45,81,126,60,23,21,27,50,139
146,1997-98,00,1610612741,CHI,30.0,74,0,608,85,176,0.483,25,65,0.385,3,6,0.5,24,53,77,49,22,15,21,47,198
